emka TECHNOLOGIES		
		
Generated by : 	IOX version 2.9.5.73 - Mar 18th, 2016	
File : 	c:\emka\iox_2_9_5_73\data\20180720-rata.mkt	
Date and time of first sample : 	Jul 20, 2018 - 2:58:53 PM.259	
		
Site-time	A1-I1-ECG (Smoothed)	
	V	
01:21:07.516	-0.044189	0
01:21:07.516	-0.044678	0
01:21:07.517	-0.044891	0.001157407407415
01:21:07.517	-0.045135	0.001157407407415
01:21:07.517	-0.045074	0.001157407407415
01:21:07.517	-0.044769	0.001157407407415
01:21:07.517	-0.044434	0.001157407407415
01:21:07.518	-0.044159	0.002314814815524
01:21:07.518	-0.043732	0.002314814815524
01:21:07.518	-0.043396	0.002314814815524
01:21:07.518	-0.043243	0.002314814815524
01:21:07.518	-0.042938	0.002314814815524
01:21:07.519	-0.042603	0.003472222222939
01:21:07.519	-0.042389	0.003472222222939
01:21:07.519	-0.042236	0.003472222222939
01:21:07.519	-0.042175	0.003472222222939
01:21:07.519	-0.042267	0.003472222222939
01:21:07.520	-0.042389	0.004629629630354
01:21:07.520	-0.042389	0.004629629630354
01:21:07.520	-0.042389	0.004629629630354
01:21:07.520	-0.042358	0.004629629630354
01:21:07.520	-0.042145	0.004629629630354
01:21:07.521	-0.041992	0.005787037037075
01:21:07.521	-0.042145	0.005787037037075
01:21:07.521	-0.042358	0.005787037037075
01:21:07.521	-0.042999	0.005787037037075
01:21:07.521	-0.043671	0.005787037037075
01:21:07.522	-0.043884	0.00694444444449
01:21:07.522	-0.043854	0.00694444444449
01:21:07.522	-0.043579	0.00694444444449
01:21:07.522	-0.042938	0.00694444444449
01:21:07.522	-0.042297	0.00694444444449
01:21:07.523	-0.041901	0.008101851852599
01:21:07.523	-0.041718	0.008101851852599
01:21:07.523	-0.041595	0.008101851852599
01:21:07.523	-0.041412	0.008101851852599
01:21:07.523	-0.041199	0.008101851852599
01:21:07.524	-0.041382	0.009259259260014
01:21:07.524	-0.04126	0.009259259260014
01:21:07.524	-0.041412	0.009259259260014
01:21:07.524	-0.041626	0.009259259260014
01:21:07.524	-0.041931	0.009259259260014
01:21:07.525	-0.041992	0.010416666666735
01:21:07.525	-0.042236	0.010416666666735
01:21:07.525	-0.042358	0.010416666666735
01:21:07.525	-0.042542	0.010416666666735
01:21:07.525	-0.042572	0.010416666666735
01:21:07.526	-0.042877	0.01157407407415
01:21:07.526	-0.042938	0.01157407407415
01:21:07.526	-0.043274	0.01157407407415
01:21:07.526	-0.043274	0.01157407407415
01:21:07.526	-0.043427	0.01157407407415
01:21:07.527	-0.043457	0.012731481482259
01:21:07.527	-0.04364	0.012731481482259
01:21:07.527	-0.04361	0.012731481482259
01:21:07.527	-0.043762	0.012731481482259
01:21:07.527	-0.043854	0.012731481482259
01:21:07.528	-0.043854	0.013888888889674
01:21:07.528	-0.043762	0.013888888889674
01:21:07.528	-0.043671	0.013888888889674
01:21:07.528	-0.043488	0.013888888889674
01:21:07.528	-0.043274	0.013888888889674
01:21:07.529	-0.043152	0.015046296297089
01:21:07.529	-0.043152	0.015046296297089
01:21:07.529	-0.04303	0.015046296297089
01:21:07.529	-0.04303	0.015046296297089
01:21:07.529	-0.042999	0.015046296297089
01:21:07.530	-0.042664	0.01620370370381
01:21:07.530	-0.042542	0.01620370370381
01:21:07.530	-0.042511	0.01620370370381
01:21:07.530	-0.042542	0.01620370370381
01:21:07.530	-0.042847	0.01620370370381
01:21:07.531	-0.043304	0.017361111111225
01:21:07.531	-0.043579	0.017361111111225
01:21:07.531	-0.043732	0.017361111111225
01:21:07.531	-0.043854	0.017361111111225
01:21:07.531	-0.043793	0.017361111111225
01:21:07.532	-0.043823	0.018518518519334
01:21:07.532	-0.043701	0.018518518519334
01:21:07.532	-0.043549	0.018518518519334
01:21:07.532	-0.04364	0.018518518519334
01:21:07.532	-0.043671	0.018518518519334
01:21:07.533	-0.043823	0.019675925926749
01:21:07.533	-0.044067	0.019675925926749
01:21:07.533	-0.044525	0.019675925926749
01:21:07.533	-0.044617	0.019675925926749
01:21:07.533	-0.04483	0.019675925926749
01:21:07.534	-0.044739	0.02083333333347
01:21:07.534	-0.044739	0.02083333333347
01:21:07.534	-0.044434	0.02083333333347
01:21:07.534	-0.044312	0.02083333333347
01:21:07.534	-0.044098	0.02083333333347
01:21:07.535	-0.043823	0.021990740740885
01:21:07.535	-0.043549	0.021990740740885
01:21:07.535	-0.043365	0.021990740740885
01:21:07.535	-0.043121	0.021990740740885
01:21:07.535	-0.042847	0.021990740740885
01:21:07.536	-0.042786	0.023148148148994
01:21:07.536	-0.042694	0.023148148148994
01:21:07.536	-0.042725	0.023148148148994
01:21:07.536	-0.042664	0.023148148148994
01:21:07.536	-0.042786	0.023148148148994
01:21:07.537	-0.042786	0.024305555556409
01:21:07.537	-0.042664	0.024305555556409
01:21:07.537	-0.042603	0.024305555556409
01:21:07.537	-0.04248	0.024305555556409
01:21:07.537	-0.042358	0.024305555556409
01:21:07.538	-0.042419	0.02546296296313
01:21:07.538	-0.042999	0.02546296296313
01:21:07.538	-0.043701	0.02546296296313
01:21:07.538	-0.044037	0.02546296296313
01:21:07.538	-0.044189	0.02546296296313
01:21:07.539	-0.044098	0.026620370370545
01:21:07.539	-0.043488	0.026620370370545
01:21:07.539	-0.042755	0.026620370370545
01:21:07.539	-0.04248	0.026620370370545
01:21:07.539	-0.042328	0.026620370370545
01:21:07.540	-0.042236	0.02777777777796
01:21:07.540	-0.042297	0.02777777777796
01:21:07.540	-0.042145	0.02777777777796
01:21:07.540	-0.042267	0.02777777777796
01:21:07.540	-0.042114	0.02777777777796
01:21:07.541	-0.042297	0.028935185186069
01:21:07.541	-0.042328	0.028935185186069
01:21:07.541	-0.042603	0.028935185186069
01:21:07.541	-0.042603	0.028935185186069
01:21:07.541	-0.042999	0.028935185186069
01:21:07.542	-0.042938	0.030092592593484
01:21:07.542	-0.043121	0.030092592593484
01:21:07.542	-0.043121	0.030092592593484
01:21:07.542	-0.043304	0.030092592593484
01:21:07.542	-0.043335	0.030092592593484
01:21:07.543	-0.043701	0.031250000000205
01:21:07.543	-0.043915	0.031250000000205
01:21:07.543	-0.04425	0.031250000000205
01:21:07.543	-0.044159	0.031250000000205
01:21:07.543	-0.044006	0.031250000000205
01:21:07.544	-0.043945	0.03240740740762
01:21:07.544	-0.043823	0.03240740740762
01:21:07.544	-0.043701	0.03240740740762
01:21:07.544	-0.043854	0.03240740740762
01:21:07.544	-0.044067	0.03240740740762
01:21:07.545	-0.044159	0.033564814815035
01:21:07.545	-0.044037	0.033564814815035
01:21:07.545	-0.043823	0.033564814815035
01:21:07.545	-0.043762	0.033564814815035
01:21:07.545	-0.043732	0.033564814815035
01:21:07.546	-0.043549	0.034722222223144
01:21:07.546	-0.043671	0.034722222223144
01:21:07.546	-0.04361	0.034722222223144
01:21:07.546	-0.043152	0.034722222223144
01:21:07.546	-0.042847	0.034722222223144
01:21:07.547	-0.042633	0.035879629629865
01:21:07.547	-0.042633	0.035879629629865
01:21:07.547	-0.04303	0.035879629629865
01:21:07.547	-0.04361	0.035879629629865
01:21:07.547	-0.044037	0.035879629629865
01:21:07.548	-0.044281	0.03703703703728
01:21:07.548	-0.044342	0.03703703703728
01:21:07.548	-0.04425	0.03703703703728
01:21:07.548	-0.044189	0.03703703703728
01:21:07.548	-0.044037	0.03703703703728
01:21:07.549	-0.043884	0.038194444444695
01:21:07.549	-0.043976	0.038194444444695
01:21:07.549	-0.044037	0.038194444444695
01:21:07.549	-0.044708	0.038194444444695
01:21:07.549	-0.044861	0.038194444444695
01:21:07.550	-0.045197	0.039351851852804
01:21:07.550	-0.045197	0.039351851852804
01:21:07.550	-0.045319	0.039351851852804
01:21:07.550	-0.044861	0.039351851852804
01:21:07.550	-0.04483	0.039351851852804
01:21:07.551	-0.044678	0.040509259260219
01:21:07.551	-0.044525	0.040509259260219
01:21:07.551	-0.044067	0.040509259260219
01:21:07.551	-0.043793	0.040509259260219
01:21:07.551	-0.043549	0.040509259260219
01:21:07.552	-0.043335	0.04166666666694
01:21:07.552	-0.043091	0.04166666666694
01:21:07.552	-0.042969	0.04166666666694
01:21:07.552	-0.042847	0.04166666666694
01:21:07.552	-0.042603	0.04166666666694
01:21:07.553	-0.042542	0.042824074074355
01:21:07.553	-0.042664	0.042824074074355
01:21:07.553	-0.042786	0.042824074074355
01:21:07.553	-0.042633	0.042824074074355
01:21:07.553	-0.042877	0.042824074074355
01:21:07.554	-0.042938	0.04398148148177
01:21:07.554	-0.042755	0.04398148148177
01:21:07.554	-0.042969	0.04398148148177
01:21:07.554	-0.043213	0.04398148148177
01:21:07.554	-0.043488	0.04398148148177
01:21:07.555	-0.044128	0.045138888889879
01:21:07.555	-0.044708	0.045138888889879
01:21:07.555	-0.044708	0.045138888889879
01:21:07.555	-0.044586	0.045138888889879
01:21:07.555	-0.044189	0.045138888889879
01:21:07.556	-0.043701	0.0462962962966
01:21:07.556	-0.043121	0.0462962962966
01:21:07.556	-0.042755	0.0462962962966
01:21:07.556	-0.04245	0.0462962962966
01:21:07.556	-0.042267	0.0462962962966
01:21:07.557	-0.041809	0.047453703704015
01:21:07.557	-0.041779	0.047453703704015
01:21:07.557	-0.041779	0.047453703704015
01:21:07.557	-0.041931	0.047453703704015
01:21:07.557	-0.042206	0.047453703704015
01:21:07.558	-0.04245	0.04861111111143
01:21:07.558	-0.042542	0.04861111111143
01:21:07.558	-0.042847	0.04861111111143
01:21:07.558	-0.042938	0.04861111111143
01:21:07.558	-0.042938	0.04861111111143
01:21:07.559	-0.043213	0.049768518519539
01:21:07.559	-0.043365	0.049768518519539
01:21:07.559	-0.043457	0.049768518519539
01:21:07.559	-0.043732	0.049768518519539
01:21:07.559	-0.043915	0.049768518519539
01:21:07.560	-0.043915	0.050925925926954
01:21:07.560	-0.043976	0.050925925926954
01:21:07.560	-0.043915	0.050925925926954
01:21:07.560	-0.043823	0.050925925926954
01:21:07.560	-0.043793	0.050925925926954
01:21:07.561	-0.043854	0.052083333333675
01:21:07.561	-0.044098	0.052083333333675
01:21:07.561	-0.044098	0.052083333333675
01:21:07.561	-0.044128	0.052083333333675
01:21:07.561	-0.044037	0.052083333333675
01:21:07.562	-0.043762	0.05324074074109
01:21:07.562	-0.043304	0.05324074074109
01:21:07.562	-0.043213	0.05324074074109
01:21:07.562	-0.043213	0.05324074074109
01:21:07.562	-0.043396	0.05324074074109
01:21:07.563	-0.043427	0.054398148148505
01:21:07.563	-0.043427	0.054398148148505
01:21:07.563	-0.043274	0.054398148148505
01:21:07.563	-0.04303	0.054398148148505
01:21:07.563	-0.042786	0.054398148148505
01:21:07.564	-0.04303	0.055555555556613
01:21:07.564	-0.043335	0.055555555556613
01:21:07.564	-0.043701	0.055555555556613
01:21:07.564	-0.044098	0.055555555556613
01:21:07.564	-0.04422	0.055555555556613
01:21:07.565	-0.044128	0.056712962962641
01:21:07.565	-0.043976	0.056712962962641
01:21:07.565	-0.04364	0.056712962962641
01:21:07.565	-0.043518	0.056712962962641
01:21:07.565	-0.04361	0.056712962962641
01:21:07.566	-0.043671	0.05787037037075
01:21:07.566	-0.043976	0.05787037037075
01:21:07.566	-0.044312	0.05787037037075
01:21:07.566	-0.044617	0.05787037037075
01:21:07.566	-0.044769	0.05787037037075
01:21:07.567	-0.044708	0.059027777778165
01:21:07.567	-0.044739	0.059027777778165
01:21:07.567	-0.044769	0.059027777778165
01:21:07.567	-0.044434	0.059027777778165
01:21:07.567	-0.04422	0.059027777778165
01:21:07.568	-0.044067	0.06018518518558
01:21:07.568	-0.043732	0.06018518518558
01:21:07.568	-0.043304	0.06018518518558
01:21:07.568	-0.043182	0.06018518518558
01:21:07.568	-0.042908	0.06018518518558
01:21:07.569	-0.042633	0.061342592593688
01:21:07.569	-0.04245	0.061342592593688
01:21:07.569	-0.042542	0.061342592593688
01:21:07.569	-0.042328	0.061342592593688
01:21:07.569	-0.042419	0.061342592593688
01:21:07.570	-0.042358	0.06250000000041
01:21:07.570	-0.04248	0.06250000000041
01:21:07.570	-0.04248	0.06250000000041
01:21:07.570	-0.042511	0.06250000000041
01:21:07.570	-0.04245	0.06250000000041
01:21:07.571	-0.042755	0.063657407407825
01:21:07.571	-0.042725	0.063657407407825
01:21:07.571	-0.042999	0.063657407407825
01:21:07.571	-0.04361	0.063657407407825
01:21:07.571	-0.044098	0.063657407407825
01:21:07.572	-0.044281	0.06481481481524
01:21:07.572	-0.04425	0.06481481481524
01:21:07.572	-0.044006	0.06481481481524
01:21:07.572	-0.043549	0.06481481481524
01:21:07.572	-0.043091	0.06481481481524
01:21:07.573	-0.042847	0.065972222223348
01:21:07.573	-0.042938	0.065972222223348
01:21:07.573	-0.042786	0.065972222223348
01:21:07.573	-0.04248	0.065972222223348
01:21:07.573	-0.042358	0.065972222223348
01:21:07.574	-0.042297	0.067129629629376
01:21:07.574	-0.042145	0.067129629629376
01:21:07.574	-0.042267	0.067129629629376
01:21:07.574	-0.042603	0.067129629629376
01:21:07.574	-0.042725	0.067129629629376
01:21:07.575	-0.042999	0.068287037037484
01:21:07.575	-0.04303	0.068287037037484
01:21:07.575	-0.043182	0.068287037037484
01:21:07.575	-0.043152	0.068287037037484
01:21:07.575	-0.043396	0.068287037037484
01:21:07.576	-0.043427	0.069444444444899
01:21:07.576	-0.043762	0.069444444444899
01:21:07.576	-0.043671	0.069444444444899
01:21:07.576	-0.044037	0.069444444444899
01:21:07.576	-0.044006	0.069444444444899
01:21:07.577	-0.044067	0.070601851852314
01:21:07.577	-0.044098	0.070601851852314
01:21:07.577	-0.044281	0.070601851852314
01:21:07.577	-0.044189	0.070601851852314
01:21:07.577	-0.044312	0.070601851852314
01:21:07.578	-0.044312	0.071759259260423
01:21:07.578	-0.04422	0.071759259260423
01:21:07.578	-0.04425	0.071759259260423
01:21:07.578	-0.044037	0.071759259260423
01:21:07.578	-0.043976	0.071759259260423
01:21:07.579	-0.043884	0.072916666667144
01:21:07.579	-0.043823	0.072916666667144
01:21:07.579	-0.043884	0.072916666667144
01:21:07.579	-0.043854	0.072916666667144
01:21:07.579	-0.04364	0.072916666667144
01:21:07.580	-0.043396	0.074074074074559
01:21:07.580	-0.043243	0.074074074074559
01:21:07.580	-0.043121	0.074074074074559
01:21:07.580	-0.043335	0.074074074074559
01:21:07.580	-0.043579	0.074074074074559
01:21:07.581	-0.044067	0.075231481481974
01:21:07.581	-0.044434	0.075231481481974
01:21:07.581	-0.044556	0.075231481481974
01:21:07.581	-0.044556	0.075231481481974
01:21:07.581	-0.044678	0.075231481481974
01:21:07.582	-0.044525	0.076388888890083
01:21:07.582	-0.044495	0.076388888890083
01:21:07.582	-0.044373	0.076388888890083
01:21:07.582	-0.044189	0.076388888890083
01:21:07.582	-0.044189	0.076388888890083
01:21:07.583	-0.044281	0.077546296296111
01:21:07.583	-0.044403	0.077546296296111
01:21:07.583	-0.044678	0.077546296296111
01:21:07.583	-0.045197	0.077546296296111
01:21:07.583	-0.045227	0.077546296296111
01:21:07.584	-0.045441	0.078703703704219
01:21:07.584	-0.045471	0.078703703704219
01:21:07.584	-0.045197	0.078703703704219
01:21:07.584	-0.044769	0.078703703704219
01:21:07.584	-0.044495	0.078703703704219
01:21:07.585	-0.044067	0.079861111111634
01:21:07.585	-0.04364	0.079861111111634
01:21:07.585	-0.04364	0.079861111111634
01:21:07.585	-0.043457	0.079861111111634
01:21:07.585	-0.043274	0.079861111111634
01:21:07.586	-0.043274	0.081018518519049
01:21:07.586	-0.043243	0.081018518519049
01:21:07.586	-0.043121	0.081018518519049
01:21:07.586	-0.043213	0.081018518519049
01:21:07.586	-0.043274	0.081018518519049
01:21:07.587	-0.043091	0.082175925927158
01:21:07.587	-0.04306	0.082175925927158
01:21:07.587	-0.042938	0.082175925927158
01:21:07.587	-0.042755	0.082175925927158
01:21:07.587	-0.042877	0.082175925927158
01:21:07.588	-0.043091	0.083333333333185
01:21:07.588	-0.043518	0.083333333333185
01:21:07.588	-0.044067	0.083333333333185
01:21:07.588	-0.044495	0.083333333333185
01:21:07.588	-0.04422	0.083333333333185
01:21:07.589	-0.044037	0.084490740741294
01:21:07.589	-0.043701	0.084490740741294
01:21:07.589	-0.043274	0.084490740741294
01:21:07.589	-0.042877	0.084490740741294
01:21:07.589	-0.042877	0.084490740741294
01:21:07.590	-0.042725	0.085648148148709
01:21:07.590	-0.04248	0.085648148148709
01:21:07.590	-0.04248	0.085648148148709
01:21:07.590	-0.042511	0.085648148148709
01:21:07.590	-0.042664	0.085648148148709
01:21:07.591	-0.042999	0.086805555556124
01:21:07.591	-0.043365	0.086805555556124
01:21:07.591	-0.043365	0.086805555556124
01:21:07.591	-0.043579	0.086805555556124
01:21:07.591	-0.043579	0.086805555556124
01:21:07.592	-0.043243	0.087962962962845
01:21:07.592	-0.043121	0.087962962962845
01:21:07.592	-0.043365	0.087962962962845
01:21:07.592	-0.043488	0.087962962962845
01:21:07.592	-0.043915	0.087962962962845
01:21:07.593	-0.044373	0.089120370370954
01:21:07.593	-0.044739	0.089120370370954
01:21:07.593	-0.044769	0.089120370370954
01:21:07.593	-0.045044	0.089120370370954
01:21:07.593	-0.045044	0.089120370370954
01:21:07.594	-0.045135	0.090277777778369
01:21:07.594	-0.045044	0.090277777778369
01:21:07.594	-0.045105	0.090277777778369
01:21:07.594	-0.044922	0.090277777778369
01:21:07.594	-0.0448	0.090277777778369
01:21:07.595	-0.044678	0.091435185185784
01:21:07.595	-0.044495	0.091435185185784
01:21:07.595	-0.044281	0.091435185185784
01:21:07.595	-0.044067	0.091435185185784
01:21:07.595	-0.044037	0.091435185185784
01:21:07.596	-0.044067	0.092592592592505
01:21:07.596	-0.044159	0.092592592592505
01:21:07.596	-0.044006	0.092592592592505
01:21:07.596	-0.043793	0.092592592592505
01:21:07.596	-0.043488	0.092592592592505
01:21:07.597	-0.043335	0.09374999999992
01:21:07.597	-0.043335	0.09374999999992
01:21:07.597	-0.04364	0.09374999999992
01:21:07.597	-0.044037	0.09374999999992
01:21:07.597	-0.044312	0.09374999999992
01:21:07.598	-0.044525	0.094907407408029
01:21:07.598	-0.044739	0.094907407408029
01:21:07.598	-0.044769	0.094907407408029
01:21:07.598	-0.044739	0.094907407408029
01:21:07.598	-0.044739	0.094907407408029
01:21:07.599	-0.044678	0.096064814815444
01:21:07.599	-0.044556	0.096064814815444
01:21:07.599	-0.044617	0.096064814815444
01:21:07.599	-0.044739	0.096064814815444
01:21:07.599	-0.045044	0.096064814815444
01:21:07.600	-0.045319	0.097222222222859
01:21:07.600	-0.04538	0.097222222222859
01:21:07.600	-0.04541	0.097222222222859
01:21:07.600	-0.04538	0.097222222222859
01:21:07.600	-0.04538	0.097222222222859
01:21:07.601	-0.045105	0.09837962962958
01:21:07.601	-0.044952	0.09837962962958
01:21:07.601	-0.044373	0.09837962962958
01:21:07.601	-0.044037	0.09837962962958
01:21:07.601	-0.04361	0.09837962962958
01:21:07.602	-0.043274	0.099537037036995
01:21:07.602	-0.04303	0.099537037036995
01:21:07.602	-0.043091	0.099537037036995
01:21:07.602	-0.04306	0.099537037036995
01:21:07.602	-0.043091	0.099537037036995
01:21:07.603	-0.043335	0.100694444445104
01:21:07.603	-0.043518	0.100694444445104
01:21:07.603	-0.043762	0.100694444445104
01:21:07.603	-0.043732	0.100694444445104
01:21:07.603	-0.043549	0.100694444445104
01:21:07.604	-0.043549	0.101851851852519
01:21:07.604	-0.043396	0.101851851852519
01:21:07.604	-0.043274	0.101851851852519
01:21:07.604	-0.043732	0.101851851852519
01:21:07.604	-0.04425	0.101851851852519
01:21:07.605	-0.0448	0.10300925925924
01:21:07.605	-0.04538	0.10300925925924
01:21:07.605	-0.045654	0.10300925925924
01:21:07.605	-0.04541	0.10300925925924
01:21:07.605	-0.044983	0.10300925925924
01:21:07.606	-0.044434	0.104166666666655
01:21:07.606	-0.043945	0.104166666666655
01:21:07.606	-0.043488	0.104166666666655
01:21:07.606	-0.043213	0.104166666666655
01:21:07.606	-0.043121	0.104166666666655
01:21:07.607	-0.042908	0.105324074074764
01:21:07.607	-0.042816	0.105324074074764
01:21:07.607	-0.043091	0.105324074074764
01:21:07.607	-0.043213	0.105324074074764
01:21:07.607	-0.043518	0.105324074074764
01:21:07.608	-0.043701	0.106481481482179
01:21:07.608	-0.043915	0.106481481482179
01:21:07.608	-0.043884	0.106481481482179
01:21:07.608	-0.043884	0.106481481482179
01:21:07.608	-0.043823	0.106481481482179
01:21:07.609	-0.043854	0.107638888889594
01:21:07.609	-0.043915	0.107638888889594
01:21:07.609	-0.044067	0.107638888889594
01:21:07.609	-0.044281	0.107638888889594
01:21:07.609	-0.044525	0.107638888889594
01:21:07.610	-0.044617	0.108796296296315
01:21:07.610	-0.044495	0.108796296296315
01:21:07.610	-0.044434	0.108796296296315
01:21:07.610	-0.044586	0.108796296296315
01:21:07.610	-0.044403	0.108796296296315
01:21:07.611	-0.044464	0.10995370370373
01:21:07.611	-0.044647	0.10995370370373
01:21:07.611	-0.044739	0.10995370370373
01:21:07.611	-0.044495	0.10995370370373
01:21:07.611	-0.044495	0.10995370370373
01:21:07.612	-0.044434	0.111111111111839
01:21:07.612	-0.044281	0.111111111111839
01:21:07.612	-0.044312	0.111111111111839
01:21:07.612	-0.044342	0.111111111111839
01:21:07.612	-0.044342	0.111111111111839
01:21:07.613	-0.04425	0.112268518519254
01:21:07.613	-0.04422	0.112268518519254
01:21:07.613	-0.043854	0.112268518519254
01:21:07.613	-0.043762	0.112268518519254
01:21:07.613	-0.04364	0.112268518519254
01:21:07.614	-0.043823	0.113425925925975
01:21:07.614	-0.043945	0.113425925925975
01:21:07.614	-0.04425	0.113425925925975
01:21:07.614	-0.044556	0.113425925925975
01:21:07.614	-0.044861	0.113425925925975
01:21:07.615	-0.044952	0.11458333333339
01:21:07.615	-0.044983	0.11458333333339
01:21:07.615	-0.045074	0.11458333333339
01:21:07.615	-0.044708	0.11458333333339
01:21:07.615	-0.044678	0.11458333333339
01:21:07.616	-0.044556	0.115740740741499
01:21:07.616	-0.044708	0.115740740741499
01:21:07.616	-0.044769	0.115740740741499
01:21:07.616	-0.045349	0.115740740741499
01:21:07.616	-0.045471	0.115740740741499
01:21:07.617	-0.045746	0.116898148148914
01:21:07.617	-0.046082	0.116898148148914
01:21:07.617	-0.046143	0.116898148148914
01:21:07.617	-0.045959	0.116898148148914
01:21:07.617	-0.045837	0.116898148148914
01:21:07.618	-0.045471	0.118055555556329
01:21:07.618	-0.044861	0.118055555556329
01:21:07.618	-0.044617	0.118055555556329
01:21:07.618	-0.044312	0.118055555556329
01:21:07.618	-0.043854	0.118055555556329
01:21:07.619	-0.04361	0.11921296296305
01:21:07.619	-0.043457	0.11921296296305
01:21:07.619	-0.043182	0.11921296296305
01:21:07.619	-0.043091	0.11921296296305
01:21:07.619	-0.043121	0.11921296296305
01:21:07.620	-0.043152	0.120370370370465
01:21:07.620	-0.042816	0.120370370370465
01:21:07.620	-0.042725	0.120370370370465
01:21:07.620	-0.042511	0.120370370370465
01:21:07.620	-0.04248	0.120370370370465
01:21:07.621	-0.042572	0.121527777778574
01:21:07.621	-0.04303	0.121527777778574
01:21:07.621	-0.043518	0.121527777778574
01:21:07.621	-0.04422	0.121527777778574
01:21:07.621	-0.0448	0.121527777778574
01:21:07.622	-0.044983	0.122685185185989
01:21:07.622	-0.044922	0.122685185185989
01:21:07.622	-0.044556	0.122685185185989
01:21:07.622	-0.044067	0.122685185185989
01:21:07.622	-0.043549	0.122685185185989
01:21:07.623	-0.043091	0.12384259259271
01:21:07.623	-0.042755	0.12384259259271
01:21:07.623	-0.042633	0.12384259259271
01:21:07.623	-0.042389	0.12384259259271
01:21:07.623	-0.042328	0.12384259259271
01:21:07.624	-0.04248	0.125000000000125
01:21:07.624	-0.042694	0.125000000000125
01:21:07.624	-0.042938	0.125000000000125
01:21:07.624	-0.043091	0.125000000000125
01:21:07.624	-0.043274	0.125000000000125
01:21:07.625	-0.042999	0.12615740740754
01:21:07.625	-0.043243	0.12615740740754
01:21:07.625	-0.043182	0.12615740740754
01:21:07.625	-0.043365	0.12615740740754
01:21:07.625	-0.043427	0.12615740740754
01:21:07.626	-0.044037	0.127314814815649
01:21:07.626	-0.044098	0.127314814815649
01:21:07.626	-0.044403	0.127314814815649
01:21:07.626	-0.044739	0.127314814815649
01:21:07.626	-0.044708	0.127314814815649
01:21:07.627	-0.044586	0.128472222223064
01:21:07.627	-0.044678	0.128472222223064
01:21:07.627	-0.044647	0.128472222223064
01:21:07.627	-0.044556	0.128472222223064
01:21:07.627	-0.044769	0.128472222223064
01:21:07.628	-0.044922	0.129629629629785
01:21:07.628	-0.044952	0.129629629629785
01:21:07.628	-0.04483	0.129629629629785
01:21:07.628	-0.044647	0.129629629629785
01:21:07.628	-0.044647	0.129629629629785
01:21:07.629	-0.044556	0.1307870370372
01:21:07.629	-0.044464	0.1307870370372
01:21:07.629	-0.044556	0.1307870370372
01:21:07.629	-0.044495	0.1307870370372
01:21:07.629	-0.04425	0.1307870370372
01:21:07.630	-0.044098	0.131944444445309
01:21:07.630	-0.043762	0.131944444445309
01:21:07.630	-0.04361	0.131944444445309
01:21:07.630	-0.043823	0.131944444445309
01:21:07.630	-0.043945	0.131944444445309
01:21:07.631	-0.04425	0.133101851852724
01:21:07.631	-0.044586	0.133101851852724
01:21:07.631	-0.045044	0.133101851852724
01:21:07.631	-0.045044	0.133101851852724
01:21:07.631	-0.045197	0.133101851852724
01:21:07.632	-0.045013	0.134259259259445
01:21:07.632	-0.045105	0.134259259259445
01:21:07.632	-0.044708	0.134259259259445
01:21:07.632	-0.044769	0.134259259259445
01:21:07.632	-0.044678	0.134259259259445
01:21:07.633	-0.04483	0.13541666666686
01:21:07.633	-0.044861	0.13541666666686
01:21:07.633	-0.045258	0.13541666666686
01:21:07.633	-0.04541	0.13541666666686
01:21:07.633	-0.045715	0.13541666666686
01:21:07.634	-0.045898	0.136574074074275
01:21:07.634	-0.045898	0.136574074074275
01:21:07.634	-0.045715	0.136574074074275
01:21:07.634	-0.04541	0.136574074074275
01:21:07.634	-0.044922	0.136574074074275
01:21:07.635	-0.044586	0.137731481482384
01:21:07.635	-0.044342	0.137731481482384
01:21:07.635	-0.044037	0.137731481482384
01:21:07.635	-0.043762	0.137731481482384
01:21:07.635	-0.04364	0.137731481482384
01:21:07.636	-0.043335	0.138888888889799
01:21:07.636	-0.043152	0.138888888889799
01:21:07.636	-0.043243	0.138888888889799
01:21:07.636	-0.043457	0.138888888889799
01:21:07.636	-0.043579	0.138888888889799
01:21:07.637	-0.043671	0.14004629629652
01:21:07.637	-0.043701	0.14004629629652
01:21:07.637	-0.043457	0.14004629629652
01:21:07.637	-0.043213	0.14004629629652
01:21:07.637	-0.043304	0.14004629629652
01:21:07.638	-0.043549	0.141203703703935
01:21:07.638	-0.043976	0.141203703703935
01:21:07.638	-0.044647	0.141203703703935
01:21:07.638	-0.045013	0.141203703703935
01:21:07.638	-0.044952	0.141203703703935
01:21:07.639	-0.044891	0.142361111112044
01:21:07.639	-0.04425	0.142361111112044
01:21:07.639	-0.043579	0.142361111112044
01:21:07.639	-0.043182	0.142361111112044
01:21:07.639	-0.042908	0.142361111112044
01:21:07.640	-0.04245	0.143518518519459
01:21:07.640	-0.04248	0.143518518519459
01:21:07.640	-0.042267	0.143518518519459
01:21:07.640	-0.042297	0.143518518519459
01:21:07.640	-0.042297	0.143518518519459
01:21:07.641	-0.04248	0.14467592592618
01:21:07.641	-0.042542	0.14467592592618
01:21:07.641	-0.042847	0.14467592592618
01:21:07.641	-0.042877	0.14467592592618
01:21:07.641	-0.042938	0.14467592592618
01:21:07.642	-0.042938	0.145833333333595
01:21:07.642	-0.043152	0.145833333333595
01:21:07.642	-0.043304	0.145833333333595
01:21:07.642	-0.04364	0.145833333333595
01:21:07.642	-0.043823	0.145833333333595
01:21:07.643	-0.044189	0.14699074074101
01:21:07.643	-0.044312	0.14699074074101
01:21:07.643	-0.044342	0.14699074074101
01:21:07.643	-0.04425	0.14699074074101
01:21:07.643	-0.044159	0.14699074074101
01:21:07.644	-0.04425	0.148148148149119
01:21:07.644	-0.04422	0.148148148149119
01:21:07.644	-0.044373	0.148148148149119
01:21:07.644	-0.044586	0.148148148149119
01:21:07.644	-0.0448	0.148148148149119
01:21:07.645	-0.044678	0.149305555556534
01:21:07.645	-0.044739	0.149305555556534
01:21:07.645	-0.04425	0.149305555556534
01:21:07.645	-0.043945	0.149305555556534
01:21:07.645	-0.044006	0.149305555556534
01:21:07.646	-0.044067	0.150462962963255
01:21:07.646	-0.044067	0.150462962963255
01:21:07.646	-0.044342	0.150462962963255
01:21:07.646	-0.044373	0.150462962963255
01:21:07.646	-0.044098	0.150462962963255
01:21:07.647	-0.043976	0.15162037037067
01:21:07.647	-0.043945	0.15162037037067
01:21:07.647	-0.04425	0.15162037037067
01:21:07.647	-0.044434	0.15162037037067
01:21:07.647	-0.044861	0.15162037037067
01:21:07.648	-0.045135	0.152777777778085
01:21:07.648	-0.045349	0.152777777778085
01:21:07.648	-0.045258	0.152777777778085
01:21:07.648	-0.04538	0.152777777778085
01:21:07.648	-0.045197	0.152777777778085
01:21:07.649	-0.044983	0.153935185186194
01:21:07.649	-0.04483	0.153935185186194
01:21:07.649	-0.045013	0.153935185186194
01:21:07.649	-0.045013	0.153935185186194
01:21:07.649	-0.045197	0.153935185186194
01:21:07.650	-0.045532	0.155092592592915
01:21:07.650	-0.045929	0.155092592592915
01:21:07.650	-0.045898	0.155092592592915
01:21:07.650	-0.046082	0.155092592592915
01:21:07.650	-0.045471	0.155092592592915
01:21:07.651	-0.039154	0.15625000000033
01:21:07.651	-0.027802	0.15625000000033
01:21:07.651	-0.013	0.15625000000033
01:21:07.651	0.004364	0.15625000000033
01:21:07.651	0.022156	0.15625000000033
01:21:07.652	0.034882	0.157407407407745
01:21:07.652	0.042542	0.157407407407745
01:21:07.652	0.045959	0.157407407407745
01:21:07.652	0.045715	0.157407407407745
01:21:07.652	0.043091	0.157407407407745
01:21:07.653	0.038391	0.158564814815854
01:21:07.653	0.032532	0.158564814815854
01:21:07.653	0.025696	0.158564814815854
01:21:07.653	0.018707	0.158564814815854
01:21:07.653	0.011475	0.158564814815854
01:21:07.654	0.004547	0.159722222223269
01:21:07.654	-0.002319	0.159722222223269
01:21:07.654	-0.008881	0.159722222223269
01:21:07.654	-0.015198	0.159722222223269
01:21:07.654	-0.02121	0.159722222223269
01:21:07.655	-0.027008	0.16087962962999
01:21:07.655	-0.032349	0.16087962962999
01:21:07.655	-0.036682	0.16087962962999
01:21:07.655	-0.040436	0.16087962962999
01:21:07.655	-0.04361	0.16087962962999
01:21:07.656	-0.046112	0.162037037037405
01:21:07.656	-0.048096	0.162037037037405
01:21:07.656	-0.049957	0.162037037037405
01:21:07.656	-0.051544	0.162037037037405
01:21:07.656	-0.052765	0.162037037037405
01:21:07.657	-0.053802	0.16319444444482
01:21:07.657	-0.054871	0.16319444444482
01:21:07.657	-0.055939	0.16319444444482
01:21:07.657	-0.056854	0.16319444444482
01:21:07.657	-0.0578	0.16319444444482
01:21:07.658	-0.058502	0.164351851852929
01:21:07.658	-0.05896	0.164351851852929
01:21:07.658	-0.059296	0.164351851852929
01:21:07.658	-0.059479	0.164351851852929
01:21:07.658	-0.05957	0.164351851852929
01:21:07.659	-0.059601	0.16550925925965
01:21:07.659	-0.059814	0.16550925925965
01:21:07.659	-0.059937	0.16550925925965
01:21:07.659	-0.06015	0.16550925925965
01:21:07.659	-0.060272	0.16550925925965
01:21:07.660	-0.060577	0.166666666667065
01:21:07.660	-0.060608	0.166666666667065
01:21:07.660	-0.06073	0.166666666667065
01:21:07.660	-0.060913	0.166666666667065
01:21:07.660	-0.061066	0.166666666667065
01:21:07.661	-0.061188	0.16782407407448
01:21:07.661	-0.061737	0.16782407407448
01:21:07.661	-0.061981	0.16782407407448
01:21:07.661	-0.062103	0.16782407407448
01:21:07.661	-0.062225	0.16782407407448
01:21:07.662	-0.062286	0.168981481482589
01:21:07.662	-0.062012	0.168981481482589
01:21:07.662	-0.062073	0.168981481482589
01:21:07.662	-0.062225	0.168981481482589
01:21:07.662	-0.062256	0.168981481482589
01:21:07.663	-0.0625	0.170138888888616
01:21:07.663	-0.062683	0.170138888888616
01:21:07.663	-0.062744	0.170138888888616
01:21:07.663	-0.062775	0.170138888888616
01:21:07.663	-0.063019	0.170138888888616
01:21:07.664	-0.063232	0.171296296296725
01:21:07.664	-0.063477	0.171296296296725
01:21:07.664	-0.063965	0.171296296296725
01:21:07.664	-0.064392	0.171296296296725
01:21:07.664	-0.064911	0.171296296296725
01:21:07.665	-0.065399	0.17245370370414
01:21:07.665	-0.065948	0.17245370370414
01:21:07.665	-0.066437	0.17245370370414
01:21:07.665	-0.066895	0.17245370370414
01:21:07.665	-0.067322	0.17245370370414
01:21:07.666	-0.067902	0.173611111111555
01:21:07.666	-0.068359	0.173611111111555
01:21:07.666	-0.068909	0.173611111111555
01:21:07.666	-0.06958	0.173611111111555
01:21:07.666	-0.070251	0.173611111111555
01:21:07.667	-0.070679	0.174768518519663
01:21:07.667	-0.071198	0.174768518519663
01:21:07.667	-0.071381	0.174768518519663
01:21:07.667	-0.071655	0.174768518519663
01:21:07.667	-0.071747	0.174768518519663
01:21:07.668	-0.071869	0.175925925925691
01:21:07.668	-0.07196	0.175925925925691
01:21:07.668	-0.072296	0.175925925925691
01:21:07.668	-0.072449	0.175925925925691
01:21:07.668	-0.072906	0.175925925925691
01:21:07.669	-0.07309	0.1770833333338
01:21:07.669	-0.073486	0.1770833333338
01:21:07.669	-0.074066	0.1770833333338
01:21:07.669	-0.074677	0.1770833333338
01:21:07.669	-0.074982	0.1770833333338
01:21:07.670	-0.075623	0.178240740741215
01:21:07.670	-0.075958	0.178240740741215
01:21:07.670	-0.075989	0.178240740741215
01:21:07.670	-0.075989	0.178240740741215
01:21:07.670	-0.076172	0.178240740741215
01:21:07.671	-0.076172	0.17939814814863
01:21:07.671	-0.076416	0.17939814814863
01:21:07.671	-0.076874	0.17939814814863
01:21:07.671	-0.077454	0.17939814814863
01:21:07.671	-0.077789	0.17939814814863
01:21:07.672	-0.07785	0.180555555555351
01:21:07.672	-0.077576	0.180555555555351
01:21:07.672	-0.076904	0.180555555555351
01:21:07.672	-0.075989	0.180555555555351
01:21:07.672	-0.075043	0.180555555555351
01:21:07.673	-0.074127	0.18171296296346
01:21:07.673	-0.073151	0.18171296296346
01:21:07.673	-0.072021	0.18171296296346
01:21:07.673	-0.070801	0.18171296296346
01:21:07.673	-0.069519	0.18171296296346
01:21:07.674	-0.068695	0.182870370370875
01:21:07.674	-0.067749	0.182870370370875
01:21:07.674	-0.067047	0.182870370370875
01:21:07.674	-0.066437	0.182870370370875
01:21:07.674	-0.065918	0.182870370370875
01:21:07.675	-0.065125	0.184027777778289
01:21:07.675	-0.064545	0.184027777778289
01:21:07.675	-0.063782	0.184027777778289
01:21:07.675	-0.063019	0.184027777778289
01:21:07.675	-0.062042	0.184027777778289
01:21:07.676	-0.061249	0.185185185186398
01:21:07.676	-0.060181	0.185185185186398
01:21:07.676	-0.059296	0.185185185186398
01:21:07.676	-0.058167	0.185185185186398
01:21:07.676	-0.056915	0.185185185186398
01:21:07.677	-0.055603	0.186342592592426
01:21:07.677	-0.054352	0.186342592592426
01:21:07.677	-0.052887	0.186342592592426
01:21:07.677	-0.051544	0.186342592592426
01:21:07.677	-0.050262	0.186342592592426
01:21:07.678	-0.048645	0.187500000000534
01:21:07.678	-0.047089	0.187500000000534
01:21:07.678	-0.045471	0.187500000000534
01:21:07.678	-0.043701	0.187500000000534
01:21:07.678	-0.042206	0.187500000000534
01:21:07.679	-0.040771	0.188657407407949
01:21:07.679	-0.039368	0.188657407407949
01:21:07.679	-0.038208	0.188657407407949
01:21:07.679	-0.037079	0.188657407407949
01:21:07.679	-0.035797	0.188657407407949
01:21:07.680	-0.034821	0.189814814815364
01:21:07.680	-0.033875	0.189814814815364
01:21:07.680	-0.032959	0.189814814815364
01:21:07.680	-0.032471	0.189814814815364
01:21:07.680	-0.032227	0.189814814815364
01:21:07.681	-0.031952	0.190972222222086
01:21:07.681	-0.03186	0.190972222222086
01:21:07.681	-0.03183	0.190972222222086
01:21:07.681	-0.03186	0.190972222222086
01:21:07.681	-0.031769	0.190972222222086
01:21:07.682	-0.031677	0.192129629630194
01:21:07.682	-0.031464	0.192129629630194
01:21:07.682	-0.031189	0.192129629630194
01:21:07.682	-0.030945	0.192129629630194
01:21:07.682	-0.030701	0.192129629630194
01:21:07.683	-0.030457	0.193287037037609
01:21:07.683	-0.030609	0.193287037037609
01:21:07.683	-0.03064	0.193287037037609
01:21:07.683	-0.030487	0.193287037037609
01:21:07.683	-0.030548	0.193287037037609
01:21:07.684	-0.030457	0.194444444445024
01:21:07.684	-0.03006	0.194444444445024
01:21:07.684	-0.029846	0.194444444445024
01:21:07.684	-0.029633	0.194444444445024
01:21:07.684	-0.029053	0.194444444445024
01:21:07.685	-0.028625	0.195601851852439
01:21:07.685	-0.028229	0.195601851852439
01:21:07.685	-0.027618	0.195601851852439
01:21:07.685	-0.027039	0.195601851852439
01:21:07.685	-0.026581	0.195601851852439
01:21:07.686	-0.026123	0.196759259259161
01:21:07.686	-0.025696	0.196759259259161
01:21:07.686	-0.025543	0.196759259259161
01:21:07.686	-0.02533	0.196759259259161
01:21:07.686	-0.02533	0.196759259259161
01:21:07.687	-0.025177	0.197916666667269
01:21:07.687	-0.025024	0.197916666667269
01:21:07.687	-0.02475	0.197916666667269
01:21:07.687	-0.024567	0.197916666667269
01:21:07.687	-0.024445	0.197916666667269
01:21:07.688	-0.024658	0.199074074074684
01:21:07.688	-0.024994	0.199074074074684
01:21:07.688	-0.025604	0.199074074074684
01:21:07.688	-0.025879	0.199074074074684
01:21:07.688	-0.025787	0.199074074074684
01:21:07.689	-0.025421	0.200231481482099
01:21:07.689	-0.024811	0.200231481482099
01:21:07.689	-0.023865	0.200231481482099
01:21:07.689	-0.023254	0.200231481482099
01:21:07.689	-0.022614	0.200231481482099
01:21:07.690	-0.022186	0.20138888888882
01:21:07.690	-0.021759	0.20138888888882
01:21:07.690	-0.021698	0.20138888888882
01:21:07.690	-0.021729	0.20138888888882
01:21:07.690	-0.022247	0.20138888888882
01:21:07.691	-0.022491	0.202546296296235
01:21:07.691	-0.023285	0.202546296296235
01:21:07.691	-0.023804	0.202546296296235
01:21:07.691	-0.024506	0.202546296296235
01:21:07.691	-0.024994	0.202546296296235
01:21:07.692	-0.025787	0.203703703704344
01:21:07.692	-0.026276	0.203703703704344
01:21:07.692	-0.027008	0.203703703704344
01:21:07.692	-0.027466	0.203703703704344
01:21:07.692	-0.028137	0.203703703704344
01:21:07.693	-0.028809	0.204861111111759
01:21:07.693	-0.029541	0.204861111111759
01:21:07.693	-0.03006	0.204861111111759
01:21:07.693	-0.030579	0.204861111111759
01:21:07.693	-0.031097	0.204861111111759
01:21:07.694	-0.031616	0.206018518519174
01:21:07.694	-0.03186	0.206018518519174
01:21:07.694	-0.032318	0.206018518519174
01:21:07.694	-0.032806	0.206018518519174
01:21:07.694	-0.033325	0.206018518519174
01:21:07.695	-0.033478	0.207175925925895
01:21:07.695	-0.033722	0.207175925925895
01:21:07.695	-0.034027	0.207175925925895
01:21:07.695	-0.034241	0.207175925925895
01:21:07.695	-0.034546	0.207175925925895
01:21:07.696	-0.035065	0.208333333334004
01:21:07.696	-0.035553	0.208333333334004
01:21:07.696	-0.035675	0.208333333334004
01:21:07.696	-0.03595	0.208333333334004
01:21:07.696	-0.03595	0.208333333334004
01:21:07.697	-0.036072	0.209490740741419
01:21:07.697	-0.036438	0.209490740741419
01:21:07.697	-0.037079	0.209490740741419
01:21:07.697	-0.037628	0.209490740741419
01:21:07.697	-0.038147	0.209490740741419
01:21:07.698	-0.038727	0.210648148148834
01:21:07.698	-0.039154	0.210648148148834
01:21:07.698	-0.039459	0.210648148148834
01:21:07.698	-0.039795	0.210648148148834
01:21:07.698	-0.040283	0.210648148148834
01:21:07.699	-0.040436	0.211805555555555
01:21:07.699	-0.040833	0.211805555555555
01:21:07.699	-0.04126	0.211805555555555
01:21:07.699	-0.041809	0.211805555555555
01:21:07.699	-0.042175	0.211805555555555
01:21:07.700	-0.042999	0.21296296296297
01:21:07.700	-0.043457	0.21296296296297
01:21:07.700	-0.043945	0.21296296296297
01:21:07.700	-0.044128	0.21296296296297
01:21:07.700	-0.044495	0.21296296296297
01:21:07.701	-0.044464	0.214120370371079
01:21:07.701	-0.044495	0.214120370371079
01:21:07.701	-0.044342	0.214120370371079
01:21:07.701	-0.044373	0.214120370371079
01:21:07.701	-0.044189	0.214120370371079
01:21:07.702	-0.043915	0.215277777778494
01:21:07.702	-0.043884	0.215277777778494
01:21:07.702	-0.043884	0.215277777778494
01:21:07.702	-0.043945	0.215277777778494
01:21:07.702	-0.044159	0.215277777778494
01:21:07.703	-0.044495	0.216435185185909
01:21:07.703	-0.044678	0.216435185185909
01:21:07.703	-0.044891	0.216435185185909
01:21:07.703	-0.044861	0.216435185185909
01:21:07.703	-0.044739	0.216435185185909
01:21:07.704	-0.044739	0.21759259259263
01:21:07.704	-0.044647	0.21759259259263
01:21:07.704	-0.044708	0.21759259259263
01:21:07.704	-0.045166	0.21759259259263
01:21:07.704	-0.045776	0.21759259259263
01:21:07.705	-0.046356	0.218750000000045
01:21:07.705	-0.046844	0.218750000000045
01:21:07.705	-0.046997	0.218750000000045
01:21:07.705	-0.046814	0.218750000000045
01:21:07.705	-0.046417	0.218750000000045
01:21:07.706	-0.046173	0.219907407408154
01:21:07.706	-0.045776	0.219907407408154
01:21:07.706	-0.04538	0.219907407408154
01:21:07.706	-0.045135	0.219907407408154
01:21:07.706	-0.044861	0.219907407408154
01:21:07.707	-0.044464	0.221064814815569
01:21:07.707	-0.044403	0.221064814815569
01:21:07.707	-0.044617	0.221064814815569
01:21:07.707	-0.044647	0.221064814815569
01:21:07.707	-0.045044	0.221064814815569
01:21:07.708	-0.045319	0.22222222222229
01:21:07.708	-0.045654	0.22222222222229
01:21:07.708	-0.045807	0.22222222222229
01:21:07.708	-0.046021	0.22222222222229
01:21:07.708	-0.046021	0.22222222222229
01:21:07.709	-0.046112	0.223379629629705
01:21:07.709	-0.046021	0.223379629629705
01:21:07.709	-0.046143	0.223379629629705
01:21:07.709	-0.046356	0.223379629629705
01:21:07.709	-0.046478	0.223379629629705
01:21:07.710	-0.046539	0.224537037037814
01:21:07.710	-0.046753	0.224537037037814
01:21:07.710	-0.046814	0.224537037037814
01:21:07.710	-0.046844	0.224537037037814
01:21:07.710	-0.046967	0.224537037037814
01:21:07.711	-0.046997	0.225694444445229
01:21:07.711	-0.046875	0.225694444445229
01:21:07.711	-0.046722	0.225694444445229
01:21:07.711	-0.046387	0.225694444445229
01:21:07.711	-0.046173	0.225694444445229
01:21:07.712	-0.046051	0.226851851852644
01:21:07.712	-0.045929	0.226851851852644
01:21:07.712	-0.046021	0.226851851852644
01:21:07.712	-0.046204	0.226851851852644
01:21:07.712	-0.046326	0.226851851852644
01:21:07.713	-0.046143	0.228009259259365
01:21:07.713	-0.046021	0.228009259259365
01:21:07.713	-0.045654	0.228009259259365
01:21:07.713	-0.045624	0.228009259259365
01:21:07.713	-0.045441	0.228009259259365
01:21:07.714	-0.045624	0.22916666666678
01:21:07.714	-0.045959	0.22916666666678
01:21:07.714	-0.046295	0.22916666666678
01:21:07.714	-0.046356	0.22916666666678
01:21:07.714	-0.046478	0.22916666666678
01:21:07.715	-0.046692	0.230324074074889
01:21:07.715	-0.0466	0.230324074074889
01:21:07.715	-0.04657	0.230324074074889
01:21:07.715	-0.04657	0.230324074074889
01:21:07.715	-0.046539	0.230324074074889
01:21:07.716	-0.046478	0.231481481482304
01:21:07.716	-0.046509	0.231481481482304
01:21:07.716	-0.046661	0.231481481482304
01:21:07.716	-0.046967	0.231481481482304
01:21:07.716	-0.04715	0.231481481482304
01:21:07.717	-0.047394	0.232638888889025
01:21:07.717	-0.047577	0.232638888889025
01:21:07.717	-0.047607	0.232638888889025
01:21:07.717	-0.047333	0.232638888889025
01:21:07.717	-0.047211	0.232638888889025
01:21:07.718	-0.046814	0.23379629629644
01:21:07.718	-0.046478	0.23379629629644
01:21:07.718	-0.046112	0.23379629629644
01:21:07.718	-0.045959	0.23379629629644
01:21:07.718	-0.045715	0.23379629629644
01:21:07.719	-0.045502	0.234953703704549
01:21:07.719	-0.045227	0.234953703704549
01:21:07.719	-0.045258	0.234953703704549
01:21:07.719	-0.045258	0.234953703704549
01:21:07.719	-0.045349	0.234953703704549
01:21:07.720	-0.04538	0.236111111111964
01:21:07.720	-0.045502	0.236111111111964
01:21:07.720	-0.045319	0.236111111111964
01:21:07.720	-0.045105	0.236111111111964
01:21:07.720	-0.04483	0.236111111111964
01:21:07.721	-0.044647	0.237268518518685
01:21:07.721	-0.044617	0.237268518518685
01:21:07.721	-0.044861	0.237268518518685
01:21:07.721	-0.04538	0.237268518518685
01:21:07.721	-0.045654	0.237268518518685
01:21:07.722	-0.045807	0.2384259259261
01:21:07.722	-0.045685	0.2384259259261
01:21:07.722	-0.045471	0.2384259259261
01:21:07.722	-0.044861	0.2384259259261
01:21:07.722	-0.044312	0.2384259259261
01:21:07.723	-0.043915	0.239583333333515
01:21:07.723	-0.043549	0.239583333333515
01:21:07.723	-0.043152	0.239583333333515
01:21:07.723	-0.042725	0.239583333333515
01:21:07.723	-0.042664	0.239583333333515
01:21:07.724	-0.042816	0.240740740741624
01:21:07.724	-0.042847	0.240740740741624
01:21:07.724	-0.042908	0.240740740741624
01:21:07.724	-0.043213	0.240740740741624
01:21:07.724	-0.043304	0.240740740741624
01:21:07.725	-0.043152	0.241898148149039
01:21:07.725	-0.043243	0.241898148149039
01:21:07.725	-0.043152	0.241898148149039
01:21:07.725	-0.043152	0.241898148149039
01:21:07.725	-0.043152	0.241898148149039
01:21:07.726	-0.043365	0.24305555555576
01:21:07.726	-0.043518	0.24305555555576
01:21:07.726	-0.044006	0.24305555555576
01:21:07.726	-0.044189	0.24305555555576
01:21:07.726	-0.044342	0.24305555555576
01:21:07.727	-0.044434	0.244212962963175
01:21:07.727	-0.044525	0.244212962963175
01:21:07.727	-0.044525	0.244212962963175
01:21:07.727	-0.044434	0.244212962963175
01:21:07.727	-0.044434	0.244212962963175
01:21:07.728	-0.044495	0.24537037037059
01:21:07.728	-0.044403	0.24537037037059
01:21:07.728	-0.044189	0.24537037037059
01:21:07.728	-0.044128	0.24537037037059
01:21:07.728	-0.044128	0.24537037037059
01:21:07.729	-0.043915	0.246527777778699
01:21:07.729	-0.043976	0.246527777778699
01:21:07.729	-0.043976	0.246527777778699
01:21:07.729	-0.044006	0.246527777778699
01:21:07.729	-0.043915	0.246527777778699
01:21:07.730	-0.043793	0.24768518518542
01:21:07.730	-0.043335	0.24768518518542
01:21:07.730	-0.043365	0.24768518518542
01:21:07.730	-0.043365	0.24768518518542
01:21:07.730	-0.043427	0.24768518518542
01:21:07.731	-0.043671	0.248842592592835
01:21:07.731	-0.044189	0.248842592592835
01:21:07.731	-0.04422	0.248842592592835
01:21:07.731	-0.044312	0.248842592592835
01:21:07.731	-0.044373	0.248842592592835
01:21:07.732	-0.044403	0.25000000000025
01:21:07.732	-0.04425	0.25000000000025
01:21:07.732	-0.044312	0.25000000000025
01:21:07.732	-0.044373	0.25000000000025
01:21:07.732	-0.044403	0.25000000000025
01:21:07.733	-0.044434	0.251157407408359
01:21:07.733	-0.044647	0.251157407408359
01:21:07.733	-0.044556	0.251157407408359
01:21:07.733	-0.044556	0.251157407408359
01:21:07.733	-0.044739	0.251157407408359
01:21:07.734	-0.044678	0.252314814815774
01:21:07.734	-0.044525	0.252314814815774
01:21:07.734	-0.044495	0.252314814815774
01:21:07.734	-0.044159	0.252314814815774
01:21:07.734	-0.043671	0.252314814815774
01:21:07.735	-0.043274	0.253472222222495
01:21:07.735	-0.042999	0.253472222222495
01:21:07.735	-0.042816	0.253472222222495
01:21:07.735	-0.042816	0.253472222222495
01:21:07.735	-0.042786	0.253472222222495
01:21:07.736	-0.042969	0.25462962962991
01:21:07.736	-0.04306	0.25462962962991
01:21:07.736	-0.043121	0.25462962962991
01:21:07.736	-0.043274	0.25462962962991
01:21:07.736	-0.043396	0.25462962962991
01:21:07.737	-0.043396	0.255787037037325
01:21:07.737	-0.04364	0.255787037037325
01:21:07.737	-0.043823	0.255787037037325
01:21:07.737	-0.043976	0.255787037037325
01:21:07.737	-0.04425	0.255787037037325
01:21:07.738	-0.044861	0.256944444445434
01:21:07.738	-0.045563	0.256944444445434
01:21:07.738	-0.046356	0.256944444445434
01:21:07.738	-0.047089	0.256944444445434
01:21:07.738	-0.047607	0.256944444445434
01:21:07.739	-0.048004	0.258101851852155
01:21:07.739	-0.048157	0.258101851852155
01:21:07.739	-0.048431	0.258101851852155
01:21:07.739	-0.048798	0.258101851852155
01:21:07.739	-0.049622	0.258101851852155
01:21:07.740	-0.050476	0.25925925925957
01:21:07.740	-0.051605	0.25925925925957
01:21:07.740	-0.052704	0.25925925925957
01:21:07.740	-0.054382	0.25925925925957
01:21:07.740	-0.056335	0.25925925925957
01:21:07.741	-0.058258	0.260416666666985
01:21:07.741	-0.060822	0.260416666666985
01:21:07.741	-0.063293	0.260416666666985
01:21:07.741	-0.065765	0.260416666666985
01:21:07.741	-0.068024	0.260416666666985
01:21:07.742	-0.070679	0.261574074075094
01:21:07.742	-0.072754	0.261574074075094
01:21:07.742	-0.075287	0.261574074075094
01:21:07.742	-0.077698	0.261574074075094
01:21:07.742	-0.0802	0.261574074075094
01:21:07.743	-0.082336	0.262731481482509
01:21:07.743	-0.084564	0.262731481482509
01:21:07.743	-0.086395	0.262731481482509
01:21:07.743	-0.087982	0.262731481482509
01:21:07.743	-0.089203	0.262731481482509
01:21:07.744	-0.090332	0.26388888888923
01:21:07.744	-0.091003	0.26388888888923
01:21:07.744	-0.091248	0.26388888888923
01:21:07.744	-0.091431	0.26388888888923
01:21:07.744	-0.0914	0.26388888888923
01:21:07.745	-0.090881	0.265046296296645
01:21:07.745	-0.090302	0.265046296296645
01:21:07.745	-0.089661	0.265046296296645
01:21:07.745	-0.088409	0.265046296296645
01:21:07.745	-0.086914	0.265046296296645
01:21:07.746	-0.085297	0.26620370370406
01:21:07.746	-0.083008	0.26620370370406
01:21:07.746	-0.08017	0.26620370370406
01:21:07.746	-0.076996	0.26620370370406
01:21:07.746	-0.073395	0.26620370370406
01:21:07.747	-0.069397	0.267361111112169
01:21:07.747	-0.065247	0.267361111112169
01:21:07.747	-0.061096	0.267361111112169
01:21:07.747	-0.056641	0.267361111112169
01:21:07.747	-0.051666	0.267361111112169
01:21:07.748	-0.046234	0.268518518518196
01:21:07.748	-0.040497	0.268518518518196
01:21:07.748	-0.034119	0.268518518518196
01:21:07.748	-0.027191	0.268518518518196
01:21:07.748	-0.020172	0.268518518518196
01:21:07.749	-0.01297	0.269675925926305
01:21:07.749	-0.005341	0.269675925926305
01:21:07.749	0.002136	0.269675925926305
01:21:07.749	0.009491	0.269675925926305
01:21:07.749	0.017151	0.269675925926305
01:21:07.750	0.02478	0.27083333333372
01:21:07.750	0.032684	0.27083333333372
01:21:07.750	0.040802	0.27083333333372
01:21:07.750	0.049255	0.27083333333372
01:21:07.750	0.0578	0.27083333333372
01:21:07.751	0.066742	0.271990740741135
01:21:07.751	0.075592	0.271990740741135
01:21:07.751	0.084747	0.271990740741135
01:21:07.751	0.094055	0.271990740741135
01:21:07.751	0.103485	0.271990740741135
01:21:07.752	0.113098	0.273148148149244
01:21:07.752	0.123138	0.273148148149244
01:21:07.752	0.133423	0.273148148149244
01:21:07.752	0.144043	0.273148148149244
01:21:07.752	0.155029	0.273148148149244
01:21:07.753	0.16626	0.274305555555965
01:21:07.753	0.177673	0.274305555555965
01:21:07.753	0.189056	0.274305555555965
01:21:07.753	0.20047	0.274305555555965
01:21:07.753	0.211395	0.274305555555965
01:21:07.754	0.222076	0.27546296296338
01:21:07.754	0.232178	0.27546296296338
01:21:07.754	0.241394	0.27546296296338
01:21:07.754	0.249512	0.27546296296338
01:21:07.754	0.256836	0.27546296296338
01:21:07.755	0.262756	0.276620370370795
01:21:07.755	0.267609	0.276620370370795
01:21:07.755	0.271973	0.276620370370795
01:21:07.755	0.275269	0.276620370370795
01:21:07.755	0.277527	0.276620370370795
01:21:07.756	0.278961	0.277777777778904
01:21:07.756	0.279327	0.277777777778904
01:21:07.756	0.278442	0.277777777778904
01:21:07.756	0.276794	0.277777777778904
01:21:07.756	0.2742	0.277777777778904
01:21:07.757	0.27063	0.278935185184931
01:21:07.757	0.266266	0.278935185184931
01:21:07.757	0.2612	0.278935185184931
01:21:07.757	0.25531	0.278935185184931
01:21:07.757	0.249054	0.278935185184931
01:21:07.758	0.242432	0.28009259259304
01:21:07.758	0.235474	0.28009259259304
01:21:07.758	0.227997	0.28009259259304
01:21:07.758	0.22052	0.28009259259304
01:21:07.758	0.212616	0.28009259259304
01:21:07.759	0.204376	0.281250000000455
01:21:07.759	0.195953	0.281250000000455
01:21:07.759	0.187225	0.281250000000455
01:21:07.759	0.178345	0.281250000000455
01:21:07.759	0.169464	0.281250000000455
01:21:07.760	0.160492	0.28240740740787
01:21:07.760	0.151672	0.28240740740787
01:21:07.760	0.142731	0.28240740740787
01:21:07.760	0.133423	0.28240740740787
01:21:07.760	0.123688	0.28240740740787
01:21:07.761	0.113525	0.283564814815979
01:21:07.761	0.102203	0.283564814815979
01:21:07.761	0.090149	0.283564814815979
01:21:07.761	0.077026	0.283564814815979
01:21:07.761	0.063141	0.283564814815979
01:21:07.762	0.048218	0.2847222222227
01:21:07.762	0.032318	0.2847222222227
01:21:07.762	0.015167	0.2847222222227
01:21:07.762	-0.003448	0.2847222222227
01:21:07.762	-0.024109	0.2847222222227
01:21:07.763	-0.046936	0.285879629630115
01:21:07.763	-0.071594	0.285879629630115
01:21:07.763	-0.098297	0.285879629630115
01:21:07.763	-0.126587	0.285879629630115
01:21:07.763	-0.156006	0.285879629630115
01:21:07.764	-0.185638	0.28703703703753
01:21:07.764	-0.215332	0.28703703703753
01:21:07.764	-0.24411	0.28703703703753
01:21:07.764	-0.271515	0.28703703703753
01:21:07.764	-0.297302	0.28703703703753
01:21:07.765	-0.321167	0.288194444444945
01:21:07.765	-0.34314	0.288194444444945
01:21:07.765	-0.363007	0.288194444444945
01:21:07.765	-0.381256	0.288194444444945
01:21:07.765	-0.397583	0.288194444444945
01:21:07.766	-0.412689	0.289351851851666
01:21:07.766	-0.4263	0.289351851851666
01:21:07.766	-0.438751	0.289351851851666
01:21:07.766	-0.449738	0.289351851851666
01:21:07.766	-0.459381	0.289351851851666
01:21:07.767	-0.467407	0.290509259259775
01:21:07.767	-0.473877	0.290509259259775
01:21:07.767	-0.47876	0.290509259259775
01:21:07.767	-0.481995	0.290509259259775
01:21:07.767	-0.483887	0.290509259259775
01:21:07.768	-0.484344	0.29166666666719
01:21:07.768	-0.483673	0.29166666666719
01:21:07.768	-0.481781	0.29166666666719
01:21:07.768	-0.479156	0.29166666666719
01:21:07.768	-0.475586	0.29166666666719
01:21:07.769	-0.471222	0.292824074074605
01:21:07.769	-0.466339	0.292824074074605
01:21:07.769	-0.460999	0.292824074074605
01:21:07.769	-0.4552	0.292824074074605
01:21:07.769	-0.449158	0.292824074074605
01:21:07.770	-0.442902	0.293981481482714
01:21:07.770	-0.43634	0.293981481482714
01:21:07.770	-0.429565	0.293981481482714
01:21:07.770	-0.422485	0.293981481482714
01:21:07.770	-0.415558	0.293981481482714
01:21:07.771	-0.408417	0.295138888888741
01:21:07.771	-0.401489	0.295138888888741
01:21:07.771	-0.394806	0.295138888888741
01:21:07.771	-0.388428	0.295138888888741
01:21:07.771	-0.381836	0.295138888888741
01:21:07.772	-0.375305	0.29629629629685
01:21:07.772	-0.36853	0.29629629629685
01:21:07.772	-0.361542	0.29629629629685
01:21:07.772	-0.354614	0.29629629629685
01:21:07.772	-0.347626	0.29629629629685
01:21:07.773	-0.340698	0.297453703704265
01:21:07.773	-0.333893	0.297453703704265
01:21:07.773	-0.327362	0.297453703704265
01:21:07.773	-0.320709	0.297453703704265
01:21:07.773	-0.31424	0.297453703704265
01:21:07.774	-0.30835	0.29861111111168
01:21:07.774	-0.303192	0.29861111111168
01:21:07.774	-0.297546	0.29861111111168
01:21:07.774	-0.292023	0.29861111111168
01:21:07.774	-0.286621	0.29861111111168
01:21:07.775	-0.281006	0.299768518518401
01:21:07.775	-0.27478	0.299768518518401
01:21:07.775	-0.269043	0.299768518518401
01:21:07.775	-0.263519	0.299768518518401
01:21:07.775	-0.257782	0.299768518518401
01:21:07.776	-0.252411	0.30092592592651
01:21:07.776	-0.247009	0.30092592592651
01:21:07.776	-0.242035	0.30092592592651
01:21:07.776	-0.236786	0.30092592592651
01:21:07.776	-0.231903	0.30092592592651
01:21:07.777	-0.226624	0.302083333333925
01:21:07.777	-0.22171	0.302083333333925
01:21:07.777	-0.216736	0.302083333333925
01:21:07.777	-0.21167	0.302083333333925
01:21:07.777	-0.206726	0.302083333333925
01:21:07.778	-0.201782	0.30324074074134
01:21:07.778	-0.196655	0.30324074074134
01:21:07.778	-0.191406	0.30324074074134
01:21:07.778	-0.18634	0.30324074074134
01:21:07.778	-0.181366	0.30324074074134
01:21:07.779	-0.176605	0.304398148149448
01:21:07.779	-0.171844	0.304398148149448
01:21:07.779	-0.167267	0.304398148149448
01:21:07.779	-0.162933	0.304398148149448
01:21:07.779	-0.158356	0.304398148149448
01:21:07.780	-0.153961	0.305555555555476
01:21:07.780	-0.149536	0.305555555555476
01:21:07.780	-0.145172	0.305555555555476
01:21:07.780	-0.14093	0.305555555555476
01:21:07.780	-0.136963	0.305555555555476
01:21:07.781	-0.133057	0.306712962963585
01:21:07.781	-0.129456	0.306712962963585
01:21:07.781	-0.125854	0.306712962963585
01:21:07.781	-0.122192	0.306712962963585
01:21:07.781	-0.118469	0.306712962963585
01:21:07.782	-0.114319	0.307870370371
01:21:07.782	-0.110382	0.307870370371
01:21:07.782	-0.106598	0.307870370371
01:21:07.782	-0.102997	0.307870370371
01:21:07.782	-0.09967	0.307870370371
01:21:07.783	-0.096741	0.309027777778414
01:21:07.783	-0.093811	0.309027777778414
01:21:07.783	-0.090729	0.309027777778414
01:21:07.783	-0.08783	0.309027777778414
01:21:07.783	-0.084717	0.309027777778414
01:21:07.784	-0.081818	0.310185185185136
01:21:07.784	-0.078705	0.310185185185136
01:21:07.784	-0.075714	0.310185185185136
01:21:07.784	-0.07251	0.310185185185136
01:21:07.784	-0.069458	0.310185185185136
01:21:07.785	-0.066315	0.311342592592551
01:21:07.785	-0.063385	0.311342592592551
01:21:07.785	-0.06073	0.311342592592551
01:21:07.785	-0.058136	0.311342592592551
01:21:07.785	-0.055725	0.311342592592551
01:21:07.786	-0.053558	0.312500000000659
01:21:07.786	-0.051666	0.312500000000659
01:21:07.786	-0.0495	0.312500000000659
01:21:07.786	-0.047485	0.312500000000659
01:21:07.786	-0.045685	0.312500000000659
01:21:07.787	-0.04361	0.313657407408074
01:21:07.787	-0.041504	0.313657407408074
01:21:07.787	-0.039673	0.313657407408074
01:21:07.787	-0.037903	0.313657407408074
01:21:07.787	-0.036102	0.313657407408074
01:21:07.788	-0.034637	0.314814814814796
01:21:07.788	-0.033325	0.314814814814796
01:21:07.788	-0.032074	0.314814814814796
01:21:07.788	-0.030884	0.314814814814796
01:21:07.788	-0.029266	0.314814814814796
01:21:07.789	-0.027679	0.315972222222211
01:21:07.789	-0.02594	0.315972222222211
01:21:07.789	-0.024139	0.315972222222211
01:21:07.789	-0.022217	0.315972222222211
01:21:07.789	-0.020508	0.315972222222211
01:21:07.790	-0.01886	0.317129629630319
01:21:07.790	-0.017365	0.317129629630319
01:21:07.790	-0.015778	0.317129629630319
01:21:07.790	-0.014771	0.317129629630319
01:21:07.790	-0.013824	0.317129629630319
01:21:07.791	-0.012878	0.318287037037734
01:21:07.791	-0.011932	0.318287037037734
01:21:07.791	-0.0112	0.318287037037734
01:21:07.791	-0.010132	0.318287037037734
01:21:07.791	-0.009399	0.318287037037734
01:21:07.792	-0.008575	0.319444444445149
01:21:07.792	-0.007782	0.319444444445149
01:21:07.792	-0.00705	0.319444444445149
01:21:07.792	-0.006378	0.319444444445149
01:21:07.792	-0.005646	0.319444444445149
01:21:07.793	-0.005402	0.320601851851871
01:21:07.793	-0.004883	0.320601851851871
01:21:07.793	-0.004517	0.320601851851871
01:21:07.793	-0.003998	0.320601851851871
01:21:07.793	-0.003693	0.320601851851871
01:21:07.794	-0.003052	0.321759259259285
01:21:07.794	-0.002594	0.321759259259285
01:21:07.794	-0.002167	0.321759259259285
01:21:07.794	-0.001801	0.321759259259285
01:21:07.794	-0.00119	0.321759259259285
01:21:07.795	-0.000671	0.322916666667394
01:21:07.795	-0.000122	0.322916666667394
01:21:07.795	0.000488	0.322916666667394
01:21:07.795	0.000763	0.322916666667394
01:21:07.795	0.00116	0.322916666667394
01:21:07.796	0.001495	0.324074074074809
01:21:07.796	0.001556	0.324074074074809
01:21:07.796	0.001953	0.324074074074809
01:21:07.796	0.002533	0.324074074074809
01:21:07.796	0.00296	0.324074074074809
01:21:07.797	0.003418	0.32523148148153
01:21:07.797	0.003723	0.32523148148153
01:21:07.797	0.003754	0.32523148148153
01:21:07.797	0.003815	0.32523148148153
01:21:07.797	0.003876	0.32523148148153
01:21:07.798	0.003662	0.326388888888945
01:21:07.798	0.003662	0.326388888888945
01:21:07.798	0.003723	0.326388888888945
01:21:07.798	0.003693	0.326388888888945
01:21:07.798	0.003632	0.326388888888945
01:21:07.799	0.003876	0.327546296297054
01:21:07.799	0.003998	0.327546296297054
01:21:07.799	0.004089	0.327546296297054
01:21:07.799	0.003967	0.327546296297054
01:21:07.799	0.003784	0.327546296297054
01:21:07.800	0.003601	0.328703703704469
01:21:07.800	0.00351	0.328703703704469
01:21:07.800	0.003418	0.328703703704469
01:21:07.800	0.003418	0.328703703704469
01:21:07.800	0.00354	0.328703703704469
01:21:07.801	0.003601	0.329861111111884
01:21:07.801	0.003784	0.329861111111884
01:21:07.801	0.003906	0.329861111111884
01:21:07.801	0.004242	0.329861111111884
01:21:07.801	0.004517	0.329861111111884
01:21:07.802	0.004791	0.331018518518605
01:21:07.802	0.005035	0.331018518518605
01:21:07.802	0.005035	0.331018518518605
01:21:07.802	0.004974	0.331018518518605
01:21:07.802	0.004913	0.331018518518605
01:21:07.803	0.004669	0.33217592592602
01:21:07.803	0.004486	0.33217592592602
01:21:07.803	0.004517	0.33217592592602
01:21:07.803	0.004578	0.33217592592602
01:21:07.803	0.004486	0.33217592592602
01:21:07.804	0.004913	0.333333333334129
01:21:07.804	0.004913	0.333333333334129
01:21:07.804	0.004761	0.333333333334129
01:21:07.804	0.004608	0.333333333334129
01:21:07.804	0.004272	0.333333333334129
01:21:07.805	0.00354	0.334490740741544
01:21:07.805	0.003174	0.334490740741544
01:21:07.805	0.003082	0.334490740741544
01:21:07.805	0.003052	0.334490740741544
01:21:07.805	0.003204	0.334490740741544
01:21:07.806	0.003387	0.335648148148265
01:21:07.806	0.003906	0.335648148148265
01:21:07.806	0.004333	0.335648148148265
01:21:07.806	0.004608	0.335648148148265
01:21:07.806	0.004974	0.335648148148265
01:21:07.807	0.005219	0.33680555555568
01:21:07.807	0.004791	0.33680555555568
01:21:07.807	0.004517	0.33680555555568
01:21:07.807	0.00412	0.33680555555568
01:21:07.807	0.003632	0.33680555555568
01:21:07.808	0.003296	0.337962962963095
01:21:07.808	0.003174	0.337962962963095
01:21:07.808	0.00293	0.337962962963095
01:21:07.808	0.002808	0.337962962963095
01:21:07.808	0.002594	0.337962962963095
01:21:07.809	0.00238	0.339120370371204
01:21:07.809	0.002167	0.339120370371204
01:21:07.809	0.001831	0.339120370371204
01:21:07.809	0.001404	0.339120370371204
01:21:07.809	0.001129	0.339120370371204
01:21:07.810	0.000824	0.340277777778619
01:21:07.810	0.00058	0.340277777778619
01:21:07.810	0.000336	0.340277777778619
01:21:07.810	9.2E-05	0.340277777778619
01:21:07.810	3.1E-05	0.340277777778619
01:21:07.811	-3.1E-05	0.34143518518534
01:21:07.811	-0.000153	0.34143518518534
01:21:07.811	-0.000153	0.34143518518534
01:21:07.811	-3.1E-05	0.34143518518534
01:21:07.811	3.1E-05	0.34143518518534
01:21:07.812	0.000122	0.342592592592755
01:21:07.812	9.2E-05	0.342592592592755
01:21:07.812	0	0.342592592592755
01:21:07.812	-0.000244	0.342592592592755
01:21:07.812	-0.000702	0.342592592592755
01:21:07.813	-0.001129	0.343750000000864
01:21:07.813	-0.001282	0.343750000000864
01:21:07.813	-0.001678	0.343750000000864
01:21:07.813	-0.001617	0.343750000000864
01:21:07.813	-0.001648	0.343750000000864
01:21:07.814	-0.001709	0.344907407408279
01:21:07.814	-0.002075	0.344907407408279
01:21:07.814	-0.002258	0.344907407408279
01:21:07.814	-0.002686	0.344907407408279
01:21:07.814	-0.003082	0.344907407408279
01:21:07.815	-0.003571	0.346064814815
01:21:07.815	-0.003815	0.346064814815
01:21:07.815	-0.003906	0.346064814815
01:21:07.815	-0.00415	0.346064814815
01:21:07.815	-0.004181	0.346064814815
01:21:07.816	-0.004303	0.347222222222415
01:21:07.816	-0.004364	0.347222222222415
01:21:07.816	-0.004639	0.347222222222415
01:21:07.816	-0.005035	0.347222222222415
01:21:07.816	-0.005371	0.347222222222415
01:21:07.817	-0.005615	0.34837962962983
01:21:07.817	-0.005981	0.34837962962983
01:21:07.817	-0.006104	0.34837962962983
01:21:07.817	-0.006134	0.34837962962983
01:21:07.817	-0.006012	0.34837962962983
01:21:07.818	-0.00589	0.349537037037939
01:21:07.818	-0.005707	0.349537037037939
01:21:07.818	-0.005646	0.349537037037939
01:21:07.818	-0.005524	0.349537037037939
01:21:07.818	-0.005646	0.349537037037939
01:21:07.819	-0.005737	0.350694444445354
01:21:07.819	-0.005951	0.350694444445354
01:21:07.819	-0.006165	0.350694444445354
01:21:07.819	-0.006378	0.350694444445354
01:21:07.819	-0.006653	0.350694444445354
01:21:07.820	-0.006836	0.351851851852075
01:21:07.820	-0.006989	0.351851851852075
01:21:07.820	-0.00705	0.351851851852075
01:21:07.820	-0.00705	0.351851851852075
01:21:07.820	-0.007019	0.351851851852075
01:21:07.821	-0.007141	0.35300925925949
01:21:07.821	-0.007263	0.35300925925949
01:21:07.821	-0.007599	0.35300925925949
01:21:07.821	-0.008209	0.35300925925949
01:21:07.821	-0.008636	0.35300925925949
01:21:07.822	-0.008942	0.354166666667599
01:21:07.822	-0.009155	0.354166666667599
01:21:07.822	-0.009247	0.354166666667599
01:21:07.822	-0.008942	0.354166666667599
01:21:07.822	-0.008789	0.354166666667599
01:21:07.823	-0.008362	0.355324074075014
01:21:07.823	-0.007965	0.355324074075014
01:21:07.823	-0.007629	0.355324074075014
01:21:07.823	-0.007355	0.355324074075014
01:21:07.823	-0.007355	0.355324074075014
01:21:07.824	-0.007568	0.356481481481735
01:21:07.824	-0.007874	0.356481481481735
01:21:07.824	-0.008209	0.356481481481735
01:21:07.824	-0.008636	0.356481481481735
01:21:07.824	-0.008911	0.356481481481735
01:21:07.825	-0.009308	0.35763888888915
01:21:07.825	-0.009644	0.35763888888915
01:21:07.825	-0.009857	0.35763888888915
01:21:07.825	-0.010101	0.35763888888915
01:21:07.825	-0.010406	0.35763888888915
01:21:07.826	-0.010437	0.358796296296565
01:21:07.826	-0.010834	0.358796296296565
01:21:07.826	-0.0112	0.358796296296565
01:21:07.826	-0.011749	0.358796296296565
01:21:07.826	-0.011993	0.358796296296565
01:21:07.827	-0.012573	0.359953703704674
01:21:07.827	-0.012878	0.359953703704674
01:21:07.827	-0.013123	0.359953703704674
01:21:07.827	-0.013184	0.359953703704674
01:21:07.827	-0.013428	0.359953703704674
01:21:07.828	-0.013428	0.361111111112089
01:21:07.828	-0.013397	0.361111111112089
01:21:07.828	-0.013428	0.361111111112089
01:21:07.828	-0.013336	0.361111111112089
01:21:07.828	-0.013214	0.361111111112089
01:21:07.829	-0.013306	0.36226851851881
01:21:07.829	-0.013275	0.36226851851881
01:21:07.829	-0.013458	0.36226851851881
01:21:07.829	-0.013611	0.36226851851881
01:21:07.829	-0.013855	0.36226851851881
01:21:07.830	-0.013885	0.363425925926225
01:21:07.830	-0.013916	0.363425925926225
01:21:07.830	-0.013824	0.363425925926225
01:21:07.830	-0.014008	0.363425925926225
01:21:07.830	-0.014221	0.363425925926225
01:21:07.831	-0.014618	0.36458333333364
01:21:07.831	-0.015106	0.36458333333364
01:21:07.831	-0.015686	0.36458333333364
01:21:07.831	-0.016052	0.36458333333364
01:21:07.831	-0.016296	0.36458333333364
01:21:07.832	-0.016296	0.365740740741749
01:21:07.832	-0.016357	0.365740740741749
01:21:07.832	-0.016144	0.365740740741749
01:21:07.832	-0.016327	0.365740740741749
01:21:07.832	-0.016541	0.365740740741749
01:21:07.833	-0.016968	0.36689814814847
01:21:07.833	-0.017334	0.36689814814847
01:21:07.833	-0.017914	0.36689814814847
01:21:07.833	-0.018066	0.36689814814847
01:21:07.833	-0.018616	0.36689814814847
01:21:07.834	-0.018707	0.368055555555885
01:21:07.834	-0.018829	0.368055555555885
01:21:07.834	-0.018799	0.368055555555885
01:21:07.834	-0.018738	0.368055555555885
01:21:07.834	-0.018188	0.368055555555885
01:21:07.835	-0.018066	0.3692129629633
01:21:07.835	-0.017822	0.3692129629633
01:21:07.835	-0.017822	0.3692129629633
01:21:07.835	-0.017822	0.3692129629633
01:21:07.835	-0.018036	0.3692129629633
01:21:07.836	-0.01825	0.370370370371409
01:21:07.836	-0.018616	0.370370370371409
01:21:07.836	-0.018829	0.370370370371409
01:21:07.836	-0.019043	0.370370370371409
01:21:07.836	-0.019257	0.370370370371409
01:21:07.837	-0.019196	0.371527777778824
01:21:07.837	-0.019226	0.371527777778824
01:21:07.837	-0.019287	0.371527777778824
01:21:07.837	-0.019562	0.371527777778824
01:21:07.837	-0.019714	0.371527777778824
01:21:07.838	-0.020325	0.372685185185545
01:21:07.838	-0.020935	0.372685185185545
01:21:07.838	-0.021515	0.372685185185545
01:21:07.838	-0.022156	0.372685185185545
01:21:07.838	-0.022369	0.372685185185545
01:21:07.839	-0.0224	0.37384259259296
01:21:07.839	-0.022217	0.37384259259296
01:21:07.839	-0.021851	0.37384259259296
01:21:07.839	-0.021271	0.37384259259296
01:21:07.839	-0.020813	0.37384259259296
01:21:07.840	-0.020538	0.375000000000375
01:21:07.840	-0.020111	0.375000000000375
01:21:07.840	-0.020111	0.375000000000375
01:21:07.840	-0.020203	0.375000000000375
01:21:07.840	-0.020599	0.375000000000375
01:21:07.841	-0.020813	0.376157407408484
01:21:07.841	-0.021301	0.376157407408484
01:21:07.841	-0.021484	0.376157407408484
01:21:07.841	-0.02182	0.376157407408484
01:21:07.841	-0.021912	0.376157407408484
01:21:07.842	-0.022003	0.377314814815205
01:21:07.842	-0.022125	0.377314814815205
01:21:07.842	-0.022278	0.377314814815205
01:21:07.842	-0.022278	0.377314814815205
01:21:07.842	-0.022583	0.377314814815205
01:21:07.843	-0.022827	0.37847222222262
01:21:07.843	-0.022888	0.37847222222262
01:21:07.843	-0.022888	0.37847222222262
01:21:07.843	-0.023163	0.37847222222262
01:21:07.843	-0.023407	0.37847222222262
01:21:07.844	-0.02359	0.379629629630035
01:21:07.844	-0.023804	0.379629629630035
01:21:07.844	-0.024139	0.379629629630035
01:21:07.844	-0.024109	0.379629629630035
01:21:07.844	-0.024048	0.379629629630035
01:21:07.845	-0.024017	0.38078703703745
01:21:07.845	-0.024078	0.38078703703745
01:21:07.845	-0.024078	0.38078703703745
01:21:07.845	-0.024139	0.38078703703745
01:21:07.845	-0.024292	0.38078703703745
01:21:07.846	-0.024567	0.381944444444171
01:21:07.846	-0.024902	0.381944444444171
01:21:07.846	-0.025085	0.381944444444171
01:21:07.846	-0.02536	0.381944444444171
01:21:07.846	-0.02533	0.381944444444171
01:21:07.847	-0.025391	0.38310185185228
01:21:07.847	-0.025482	0.38310185185228
01:21:07.847	-0.025818	0.38310185185228
01:21:07.847	-0.02597	0.38310185185228
01:21:07.847	-0.026398	0.38310185185228
01:21:07.848	-0.026764	0.384259259259695
01:21:07.848	-0.0271	0.384259259259695
01:21:07.848	-0.027344	0.384259259259695
01:21:07.848	-0.027466	0.384259259259695
01:21:07.848	-0.027557	0.384259259259695
01:21:07.849	-0.027649	0.38541666666711
01:21:07.849	-0.027618	0.38541666666711
01:21:07.849	-0.027832	0.38541666666711
01:21:07.849	-0.028107	0.38541666666711
01:21:07.849	-0.028412	0.38541666666711
01:21:07.850	-0.028809	0.386574074075219
01:21:07.850	-0.029083	0.386574074075219
01:21:07.850	-0.029266	0.386574074075219
01:21:07.850	-0.029572	0.386574074075219
01:21:07.850	-0.029297	0.386574074075219
01:21:07.851	-0.023224	0.387731481481246
01:21:07.851	-0.01239	0.387731481481246
01:21:07.851	0.002136	0.387731481481246
01:21:07.851	0.019226	0.387731481481246
01:21:07.851	0.036987	0.387731481481246
01:21:07.852	0.049622	0.388888888889355
01:21:07.852	0.057159	0.388888888889355
01:21:07.852	0.060425	0.388888888889355
01:21:07.852	0.059784	0.388888888889355
01:21:07.852	0.056854	0.388888888889355
01:21:07.853	0.051941	0.39004629629677
01:21:07.853	0.045715	0.39004629629677
01:21:07.853	0.038666	0.39004629629677
01:21:07.853	0.031647	0.39004629629677
01:21:07.853	0.024353	0.39004629629677
01:21:07.854	0.01709	0.391203703704185
01:21:07.854	0.01004	0.391203703704185
01:21:07.854	0.003448	0.391203703704185
01:21:07.854	-0.00296	0.391203703704185
01:21:07.854	-0.008942	0.391203703704185
01:21:07.855	-0.014557	0.392361111110906
01:21:07.855	-0.019653	0.392361111110906
01:21:07.855	-0.024078	0.392361111110906
01:21:07.855	-0.027924	0.392361111110906
01:21:07.855	-0.031403	0.392361111110906
01:21:07.856	-0.034058	0.393518518519015
01:21:07.856	-0.036072	0.393518518519015
01:21:07.856	-0.037903	0.393518518519015
01:21:07.856	-0.03949	0.393518518519015
01:21:07.856	-0.040497	0.393518518519015
01:21:07.857	-0.041595	0.39467592592643
01:21:07.857	-0.042755	0.39467592592643
01:21:07.857	-0.043671	0.39467592592643
01:21:07.857	-0.044495	0.39467592592643
01:21:07.857	-0.045563	0.39467592592643
01:21:07.858	-0.046448	0.395833333333845
01:21:07.858	-0.04715	0.395833333333845
01:21:07.858	-0.047821	0.395833333333845
01:21:07.858	-0.04837	0.395833333333845
01:21:07.858	-0.048645	0.395833333333845
01:21:07.859	-0.048859	0.396990740741954
01:21:07.859	-0.04895	0.396990740741954
01:21:07.859	-0.049347	0.396990740741954
01:21:07.859	-0.04953	0.396990740741954
01:21:07.859	-0.049866	0.396990740741954
01:21:07.860	-0.050018	0.398148148147981
01:21:07.860	-0.050323	0.398148148147981
01:21:07.860	-0.050476	0.398148148147981
01:21:07.860	-0.050629	0.398148148147981
01:21:07.860	-0.050842	0.398148148147981
01:21:07.861	-0.051025	0.39930555555609
01:21:07.861	-0.051331	0.39930555555609
01:21:07.861	-0.051575	0.39930555555609
01:21:07.861	-0.051758	0.39930555555609
01:21:07.861	-0.051697	0.39930555555609
01:21:07.862	-0.051849	0.400462962963505
01:21:07.862	-0.051849	0.400462962963505
01:21:07.862	-0.05191	0.400462962963505
01:21:07.862	-0.052155	0.400462962963505
01:21:07.862	-0.052582	0.400462962963505
01:21:07.863	-0.052887	0.40162037037092
01:21:07.863	-0.053223	0.40162037037092
01:21:07.863	-0.053406	0.40162037037092
01:21:07.863	-0.05365	0.40162037037092
01:21:07.863	-0.053925	0.40162037037092
01:21:07.864	-0.05423	0.402777777777641
01:21:07.864	-0.054688	0.402777777777641
01:21:07.864	-0.055328	0.402777777777641
01:21:07.864	-0.056152	0.402777777777641
01:21:07.864	-0.056946	0.402777777777641
01:21:07.865	-0.057739	0.403935185185056
01:21:07.865	-0.058563	0.403935185185056
01:21:07.865	-0.059021	0.403935185185056
01:21:07.865	-0.059296	0.403935185185056
01:21:07.865	-0.059753	0.403935185185056
01:21:07.866	-0.060333	0.405092592593165
01:21:07.866	-0.06076	0.405092592593165
01:21:07.866	-0.061493	0.405092592593165
01:21:07.866	-0.062317	0.405092592593165
01:21:07.866	-0.062805	0.405092592593165
01:21:07.867	-0.063416	0.40625000000058
01:21:07.867	-0.064056	0.40625000000058
01:21:07.867	-0.064514	0.40625000000058
01:21:07.867	-0.06485	0.40625000000058
01:21:07.867	-0.065216	0.40625000000058
01:21:07.868	-0.06543	0.407407407407995
01:21:07.868	-0.06543	0.407407407407995
01:21:07.868	-0.065521	0.407407407407995
01:21:07.868	-0.065826	0.407407407407995
01:21:07.868	-0.066132	0.407407407407995
01:21:07.869	-0.066528	0.408564814814716
01:21:07.869	-0.067078	0.408564814814716
01:21:07.869	-0.067902	0.408564814814716
01:21:07.869	-0.068481	0.408564814814716
01:21:07.869	-0.069214	0.408564814814716
01:21:07.870	-0.069702	0.409722222222825
01:21:07.870	-0.07019	0.409722222222825
01:21:07.870	-0.070526	0.409722222222825
01:21:07.870	-0.070953	0.409722222222825
01:21:07.870	-0.071167	0.409722222222825
01:21:07.871	-0.071503	0.41087962963024
01:21:07.871	-0.071838	0.41087962963024
01:21:07.871	-0.072083	0.41087962963024
01:21:07.871	-0.07251	0.41087962963024
01:21:07.871	-0.072906	0.41087962963024
01:21:07.872	-0.072968	0.412037037037655
01:21:07.872	-0.072815	0.412037037037655
01:21:07.872	-0.072601	0.412037037037655
01:21:07.872	-0.071991	0.412037037037655
01:21:07.872	-0.071106	0.412037037037655
01:21:07.873	-0.070099	0.413194444444376
01:21:07.873	-0.069	0.413194444444376
01:21:07.873	-0.067932	0.413194444444376
01:21:07.873	-0.066833	0.413194444444376
01:21:07.873	-0.065857	0.413194444444376
01:21:07.874	-0.065155	0.414351851851791
01:21:07.874	-0.064453	0.414351851851791
01:21:07.874	-0.063599	0.414351851851791
01:21:07.874	-0.062775	0.414351851851791
01:21:07.874	-0.06192	0.414351851851791
01:21:07.875	-0.061005	0.4155092592599
01:21:07.875	-0.060333	0.4155092592599
01:21:07.875	-0.059509	0.4155092592599
01:21:07.875	-0.058807	0.4155092592599
01:21:07.875	-0.058105	0.4155092592599
01:21:07.876	-0.057495	0.416666666667315
01:21:07.876	-0.056824	0.416666666667315
01:21:07.876	-0.056305	0.416666666667315
01:21:07.876	-0.055542	0.416666666667315
01:21:07.876	-0.054871	0.416666666667315
01:21:07.877	-0.053955	0.41782407407473
01:21:07.877	-0.052948	0.41782407407473
01:21:07.877	-0.05188	0.41782407407473
01:21:07.877	-0.050568	0.41782407407473
01:21:07.877	-0.049011	0.41782407407473
01:21:07.878	-0.047607	0.418981481481451
01:21:07.878	-0.046051	0.418981481481451
01:21:07.878	-0.044403	0.418981481481451
01:21:07.878	-0.042816	0.418981481481451
01:21:07.878	-0.041229	0.418981481481451
01:21:07.879	-0.039581	0.42013888888956
01:21:07.879	-0.038086	0.42013888888956
01:21:07.879	-0.036438	0.42013888888956
01:21:07.879	-0.035187	0.42013888888956
01:21:07.879	-0.034058	0.42013888888956
01:21:07.880	-0.03299	0.421296296296975
01:21:07.880	-0.03186	0.421296296296975
01:21:07.880	-0.031067	0.421296296296975
01:21:07.880	-0.030334	0.421296296296975
01:21:07.880	-0.029724	0.421296296296975
01:21:07.881	-0.029358	0.42245370370439
01:21:07.881	-0.029144	0.42245370370439
01:21:07.881	-0.029083	0.42245370370439
01:21:07.881	-0.029022	0.42245370370439
01:21:07.881	-0.0289	0.42245370370439
01:21:07.882	-0.028625	0.423611111111111
01:21:07.882	-0.02832	0.423611111111111
01:21:07.882	-0.028015	0.423611111111111
01:21:07.882	-0.027435	0.423611111111111
01:21:07.882	-0.027374	0.423611111111111
01:21:07.883	-0.027283	0.424768518518526
01:21:07.883	-0.027344	0.424768518518526
01:21:07.883	-0.027283	0.424768518518526
01:21:07.883	-0.027618	0.424768518518526
01:21:07.883	-0.027435	0.424768518518526
01:21:07.884	-0.027496	0.425925925926635
01:21:07.884	-0.027283	0.425925925926635
01:21:07.884	-0.02713	0.425925925926635
01:21:07.884	-0.026733	0.425925925926635
01:21:07.884	-0.02655	0.425925925926635
01:21:07.885	-0.026184	0.42708333333405
01:21:07.885	-0.025909	0.42708333333405
01:21:07.885	-0.025757	0.42708333333405
01:21:07.885	-0.025543	0.42708333333405
01:21:07.885	-0.025391	0.42708333333405
01:21:07.886	-0.025055	0.428240740741465
01:21:07.886	-0.024994	0.428240740741465
01:21:07.886	-0.024872	0.428240740741465
01:21:07.886	-0.024658	0.428240740741465
01:21:07.886	-0.024353	0.428240740741465
01:21:07.887	-0.02417	0.429398148148186
01:21:07.887	-0.024017	0.429398148148186
01:21:07.887	-0.023621	0.429398148148186
01:21:07.887	-0.02359	0.429398148148186
01:21:07.887	-0.023468	0.429398148148186
01:21:07.888	-0.023621	0.430555555555601
01:21:07.888	-0.023712	0.430555555555601
01:21:07.888	-0.02417	0.430555555555601
01:21:07.888	-0.024231	0.430555555555601
01:21:07.888	-0.0242	0.430555555555601
01:21:07.889	-0.024017	0.43171296296371
01:21:07.889	-0.02359	0.43171296296371
01:21:07.889	-0.022919	0.43171296296371
01:21:07.889	-0.022339	0.43171296296371
01:21:07.889	-0.021912	0.43171296296371
01:21:07.890	-0.021362	0.432870370371125
01:21:07.890	-0.020935	0.432870370371125
01:21:07.890	-0.020386	0.432870370371125
01:21:07.890	-0.020233	0.432870370371125
01:21:07.890	-0.020233	0.432870370371125
01:21:07.891	-0.020172	0.434027777777846
01:21:07.891	-0.020264	0.434027777777846
01:21:07.891	-0.020599	0.434027777777846
01:21:07.891	-0.020874	0.434027777777846
01:21:07.891	-0.021118	0.434027777777846
01:21:07.892	-0.02179	0.435185185185261
01:21:07.892	-0.022247	0.435185185185261
01:21:07.892	-0.022858	0.435185185185261
01:21:07.892	-0.023499	0.435185185185261
01:21:07.892	-0.024261	0.435185185185261
01:21:07.893	-0.024811	0.436342592593369
01:21:07.893	-0.025665	0.436342592593369
01:21:07.893	-0.026337	0.436342592593369
01:21:07.893	-0.026733	0.436342592593369
01:21:07.893	-0.027222	0.436342592593369
01:21:07.894	-0.02771	0.437500000000784
01:21:07.894	-0.027985	0.437500000000784
01:21:07.894	-0.028381	0.437500000000784
01:21:07.894	-0.028931	0.437500000000784
01:21:07.894	-0.029205	0.437500000000784
01:21:07.895	-0.029541	0.438657407408199
01:21:07.895	-0.029724	0.438657407408199
01:21:07.895	-0.029907	0.438657407408199
01:21:07.895	-0.030243	0.438657407408199
01:21:07.895	-0.03067	0.438657407408199
01:21:07.896	-0.031067	0.439814814814921
01:21:07.896	-0.031677	0.439814814814921
01:21:07.896	-0.032288	0.439814814814921
01:21:07.896	-0.032532	0.439814814814921
01:21:07.896	-0.032867	0.439814814814921
01:21:07.897	-0.033142	0.440972222222336
01:21:07.897	-0.03363	0.440972222222336
01:21:07.897	-0.034058	0.440972222222336
01:21:07.897	-0.034851	0.440972222222336
01:21:07.897	-0.035614	0.440972222222336
01:21:07.898	-0.036469	0.442129629630444
01:21:07.898	-0.037079	0.442129629630444
01:21:07.898	-0.037659	0.442129629630444
01:21:07.898	-0.038086	0.442129629630444
01:21:07.898	-0.0383	0.442129629630444
01:21:07.899	-0.038605	0.443287037037859
01:21:07.899	-0.03894	0.443287037037859
01:21:07.899	-0.039368	0.443287037037859
01:21:07.899	-0.039795	0.443287037037859
01:21:07.899	-0.040131	0.443287037037859
01:21:07.900	-0.040649	0.444444444444581
01:21:07.900	-0.041016	0.444444444444581
01:21:07.900	-0.041321	0.444444444444581
01:21:07.900	-0.041626	0.444444444444581
01:21:07.900	-0.042023	0.444444444444581
01:21:07.901	-0.042023	0.445601851851996
01:21:07.901	-0.042053	0.445601851851996
01:21:07.901	-0.042053	0.445601851851996
01:21:07.901	-0.041779	0.445601851851996
01:21:07.901	-0.041595	0.445601851851996
01:21:07.902	-0.041534	0.446759259260104
01:21:07.902	-0.041565	0.446759259260104
01:21:07.902	-0.041687	0.446759259260104
01:21:07.902	-0.042114	0.446759259260104
01:21:07.902	-0.042633	0.446759259260104
01:21:07.903	-0.04306	0.447916666667519
01:21:07.903	-0.043427	0.447916666667519
01:21:07.903	-0.043793	0.447916666667519
01:21:07.903	-0.044037	0.447916666667519
01:21:07.903	-0.044067	0.447916666667519
01:21:07.904	-0.044189	0.449074074074934
01:21:07.904	-0.044342	0.449074074074934
01:21:07.904	-0.04425	0.449074074074934
01:21:07.904	-0.044403	0.449074074074934
01:21:07.904	-0.044708	0.449074074074934
01:21:07.905	-0.045074	0.450231481481656
01:21:07.905	-0.045441	0.450231481481656
01:21:07.905	-0.045654	0.450231481481656
01:21:07.905	-0.045563	0.450231481481656
01:21:07.905	-0.045471	0.450231481481656
01:21:07.906	-0.045105	0.451388888889071
01:21:07.906	-0.044464	0.451388888889071
01:21:07.906	-0.043945	0.451388888889071
01:21:07.906	-0.043549	0.451388888889071
01:21:07.906	-0.042999	0.451388888889071
01:21:07.907	-0.042664	0.452546296297179
01:21:07.907	-0.042572	0.452546296297179
01:21:07.907	-0.042725	0.452546296297179
01:21:07.907	-0.042694	0.452546296297179
01:21:07.907	-0.042999	0.452546296297179
01:21:07.908	-0.043243	0.453703703704594
01:21:07.908	-0.043427	0.453703703704594
01:21:07.908	-0.043549	0.453703703704594
01:21:07.908	-0.043854	0.453703703704594
01:21:07.908	-0.043701	0.453703703704594
01:21:07.909	-0.043854	0.454861111111315
01:21:07.909	-0.044312	0.454861111111315
01:21:07.909	-0.044617	0.454861111111315
01:21:07.909	-0.044739	0.454861111111315
01:21:07.909	-0.045074	0.454861111111315
01:21:07.910	-0.045135	0.45601851851873
01:21:07.910	-0.044861	0.45601851851873
01:21:07.910	-0.04483	0.45601851851873
01:21:07.910	-0.044952	0.45601851851873
01:21:07.910	-0.044861	0.45601851851873
01:21:07.911	-0.044891	0.457175925926145
01:21:07.911	-0.044861	0.457175925926145
01:21:07.911	-0.044769	0.457175925926145
01:21:07.911	-0.044495	0.457175925926145
01:21:07.911	-0.044312	0.457175925926145
01:21:07.912	-0.044128	0.458333333334254
01:21:07.912	-0.044037	0.458333333334254
01:21:07.912	-0.044128	0.458333333334254
01:21:07.912	-0.044342	0.458333333334254
01:21:07.912	-0.044586	0.458333333334254
01:21:07.913	-0.044556	0.459490740740975
01:21:07.913	-0.044586	0.459490740740975
01:21:07.913	-0.04422	0.459490740740975
01:21:07.913	-0.043976	0.459490740740975
01:21:07.913	-0.043945	0.459490740740975
01:21:07.914	-0.043945	0.46064814814839
01:21:07.914	-0.044006	0.46064814814839
01:21:07.914	-0.044312	0.46064814814839
01:21:07.914	-0.044647	0.46064814814839
01:21:07.914	-0.044983	0.46064814814839
01:21:07.915	-0.04538	0.461805555555805
01:21:07.915	-0.045471	0.461805555555805
01:21:07.915	-0.045532	0.461805555555805
01:21:07.915	-0.045349	0.461805555555805
01:21:07.915	-0.045166	0.461805555555805
01:21:07.916	-0.045013	0.462962962963914
01:21:07.916	-0.045166	0.462962962963914
01:21:07.916	-0.045197	0.462962962963914
01:21:07.916	-0.045471	0.462962962963914
01:21:07.916	-0.045532	0.462962962963914
01:21:07.917	-0.045685	0.464120370371329
01:21:07.917	-0.045715	0.464120370371329
01:21:07.917	-0.045807	0.464120370371329
01:21:07.917	-0.045624	0.464120370371329
01:21:07.917	-0.045563	0.464120370371329
01:21:07.918	-0.045288	0.46527777777805
01:21:07.918	-0.044922	0.46527777777805
01:21:07.918	-0.044556	0.46527777777805
01:21:07.918	-0.044189	0.46527777777805
01:21:07.918	-0.044006	0.46527777777805
01:21:07.919	-0.043732	0.466435185185465
01:21:07.919	-0.043732	0.466435185185465
01:21:07.919	-0.043884	0.466435185185465
01:21:07.919	-0.04425	0.466435185185465
01:21:07.919	-0.044464	0.466435185185465
01:21:07.920	-0.044769	0.46759259259288
01:21:07.920	-0.04483	0.46759259259288
01:21:07.920	-0.045044	0.46759259259288
01:21:07.920	-0.045013	0.46759259259288
01:21:07.920	-0.044922	0.46759259259288
01:21:07.921	-0.045013	0.468750000000989
01:21:07.921	-0.045197	0.468750000000989
01:21:07.921	-0.045258	0.468750000000989
01:21:07.921	-0.045685	0.468750000000989
01:21:07.921	-0.045929	0.468750000000989
01:21:07.922	-0.046051	0.46990740740771
01:21:07.922	-0.046051	0.46990740740771
01:21:07.922	-0.045868	0.46990740740771
01:21:07.922	-0.045471	0.46990740740771
01:21:07.922	-0.044922	0.46990740740771
01:21:07.923	-0.044373	0.471064814815125
01:21:07.923	-0.043854	0.471064814815125
01:21:07.923	-0.043457	0.471064814815125
01:21:07.923	-0.042969	0.471064814815125
01:21:07.923	-0.042816	0.471064814815125
01:21:07.924	-0.042786	0.47222222222254
01:21:07.924	-0.042877	0.47222222222254
01:21:07.924	-0.042755	0.47222222222254
01:21:07.924	-0.042938	0.47222222222254
01:21:07.924	-0.042999	0.47222222222254
01:21:07.925	-0.042877	0.473379629630649
01:21:07.925	-0.042816	0.473379629630649
01:21:07.925	-0.042786	0.473379629630649
01:21:07.925	-0.042664	0.473379629630649
01:21:07.925	-0.042633	0.473379629630649
01:21:07.926	-0.042786	0.474537037038064
01:21:07.926	-0.042786	0.474537037038064
01:21:07.926	-0.043152	0.474537037038064
01:21:07.926	-0.043274	0.474537037038064
01:21:07.926	-0.043396	0.474537037038064
01:21:07.927	-0.043427	0.475694444444785
01:21:07.927	-0.04364	0.475694444444785
01:21:07.927	-0.043457	0.475694444444785
01:21:07.927	-0.043518	0.475694444444785
01:21:07.927	-0.043488	0.475694444444785
01:21:07.928	-0.043823	0.4768518518522
01:21:07.928	-0.043549	0.4768518518522
01:21:07.928	-0.043274	0.4768518518522
01:21:07.928	-0.042999	0.4768518518522
01:21:07.928	-0.042725	0.4768518518522
01:21:07.929	-0.042236	0.478009259259615
01:21:07.929	-0.042145	0.478009259259615
01:21:07.929	-0.042358	0.478009259259615
01:21:07.929	-0.042572	0.478009259259615
01:21:07.929	-0.042664	0.478009259259615
01:21:07.930	-0.042389	0.479166666667724
01:21:07.930	-0.042358	0.479166666667724
01:21:07.930	-0.042206	0.479166666667724
01:21:07.930	-0.042114	0.479166666667724
01:21:07.930	-0.042267	0.479166666667724
01:21:07.931	-0.042603	0.480324074073751
01:21:07.931	-0.042969	0.480324074073751
01:21:07.931	-0.043304	0.480324074073751
01:21:07.931	-0.043549	0.480324074073751
01:21:07.931	-0.043579	0.480324074073751
01:21:07.932	-0.043549	0.48148148148186
01:21:07.932	-0.043518	0.48148148148186
01:21:07.932	-0.043304	0.48148148148186
01:21:07.932	-0.043243	0.48148148148186
01:21:07.932	-0.04361	0.48148148148186
01:21:07.933	-0.043915	0.482638888889275
01:21:07.933	-0.044067	0.482638888889275
01:21:07.933	-0.044373	0.482638888889275
01:21:07.933	-0.044403	0.482638888889275
01:21:07.933	-0.044342	0.482638888889275
01:21:07.934	-0.044373	0.48379629629669
01:21:07.934	-0.044281	0.48379629629669
01:21:07.934	-0.044037	0.48379629629669
01:21:07.934	-0.044128	0.48379629629669
01:21:07.934	-0.043823	0.48379629629669
01:21:07.935	-0.043488	0.484953703704799
01:21:07.935	-0.043274	0.484953703704799
01:21:07.935	-0.043243	0.484953703704799
01:21:07.935	-0.043091	0.484953703704799
01:21:07.935	-0.043243	0.484953703704799
01:21:07.936	-0.043549	0.48611111111152
01:21:07.936	-0.043793	0.48611111111152
01:21:07.936	-0.044098	0.48611111111152
01:21:07.936	-0.044281	0.48611111111152
01:21:07.936	-0.044373	0.48611111111152
01:21:07.937	-0.044342	0.487268518518935
01:21:07.937	-0.044403	0.487268518518935
01:21:07.937	-0.044495	0.487268518518935
01:21:07.937	-0.044495	0.487268518518935
01:21:07.937	-0.044586	0.487268518518935
01:21:07.938	-0.044708	0.48842592592635
01:21:07.938	-0.044891	0.48842592592635
01:21:07.938	-0.045044	0.48842592592635
01:21:07.938	-0.045166	0.48842592592635
01:21:07.938	-0.045013	0.48842592592635
01:21:07.939	-0.044891	0.489583333334459
01:21:07.939	-0.044678	0.489583333334459
01:21:07.939	-0.044037	0.489583333334459
01:21:07.939	-0.043243	0.489583333334459
01:21:07.939	-0.042786	0.489583333334459
01:21:07.940	-0.042328	0.490740740740486
01:21:07.940	-0.041779	0.490740740740486
01:21:07.940	-0.041504	0.490740740740486
01:21:07.940	-0.041504	0.490740740740486
01:21:07.940	-0.041534	0.490740740740486
01:21:07.941	-0.041504	0.491898148148595
01:21:07.941	-0.041565	0.491898148148595
01:21:07.941	-0.041687	0.491898148148595
01:21:07.941	-0.041931	0.491898148148595
01:21:07.941	-0.04187	0.491898148148595
01:21:07.942	-0.042023	0.49305555555601
01:21:07.942	-0.042206	0.49305555555601
01:21:07.942	-0.042358	0.49305555555601
01:21:07.942	-0.042297	0.49305555555601
01:21:07.942	-0.042419	0.49305555555601
01:21:07.943	-0.04245	0.494212962963425
01:21:07.943	-0.042389	0.494212962963425
01:21:07.943	-0.042419	0.494212962963425
01:21:07.943	-0.042542	0.494212962963425
01:21:07.943	-0.04306	0.494212962963425
01:21:07.944	-0.04306	0.495370370371534
01:21:07.944	-0.043121	0.495370370371534
01:21:07.944	-0.043152	0.495370370371534
01:21:07.944	-0.04303	0.495370370371534
01:21:07.944	-0.042542	0.495370370371534
01:21:07.945	-0.042358	0.496527777777561
01:21:07.945	-0.042053	0.496527777777561
01:21:07.945	-0.041931	0.496527777777561
01:21:07.945	-0.041718	0.496527777777561
01:21:07.945	-0.041443	0.496527777777561
01:21:07.946	-0.041473	0.49768518518567
01:21:07.946	-0.041626	0.49768518518567
01:21:07.946	-0.041473	0.49768518518567
01:21:07.946	-0.041595	0.49768518518567
01:21:07.946	-0.041687	0.49768518518567
01:21:07.947	-0.041534	0.498842592593085
01:21:07.947	-0.041534	0.498842592593085
01:21:07.947	-0.041626	0.498842592593085
01:21:07.947	-0.041809	0.498842592593085
01:21:07.947	-0.042084	0.498842592593085
01:21:07.948	-0.042633	0.5000000000005
01:21:07.948	-0.042847	0.5000000000005
01:21:07.948	-0.043182	0.5000000000005
01:21:07.948	-0.043396	0.5000000000005
01:21:07.948	-0.043396	0.5000000000005
01:21:07.949	-0.043152	0.501157407407221
01:21:07.949	-0.043427	0.501157407407221
01:21:07.949	-0.043457	0.501157407407221
01:21:07.949	-0.043488	0.501157407407221
01:21:07.949	-0.043579	0.501157407407221
01:21:07.950	-0.043793	0.50231481481533
01:21:07.950	-0.04364	0.50231481481533
01:21:07.950	-0.043732	0.50231481481533
01:21:07.950	-0.043854	0.50231481481533
01:21:07.950	-0.043793	0.50231481481533
01:21:07.951	-0.04361	0.503472222222745
01:21:07.951	-0.04361	0.503472222222745
01:21:07.951	-0.043213	0.503472222222745
01:21:07.951	-0.042786	0.503472222222745
01:21:07.951	-0.042542	0.503472222222745
01:21:07.952	-0.042419	0.50462962963016
01:21:07.952	-0.042206	0.50462962963016
01:21:07.952	-0.042206	0.50462962963016
01:21:07.952	-0.042358	0.50462962963016
01:21:07.952	-0.042572	0.50462962963016
01:21:07.953	-0.042908	0.505787037038269
01:21:07.953	-0.043274	0.505787037038269
01:21:07.953	-0.043457	0.505787037038269
01:21:07.953	-0.043457	0.505787037038269
01:21:07.953	-0.043427	0.505787037038269
01:21:07.954	-0.043213	0.506944444444296
01:21:07.954	-0.042938	0.506944444444296
01:21:07.954	-0.042969	0.506944444444296
01:21:07.954	-0.04303	0.506944444444296
01:21:07.954	-0.043365	0.506944444444296
01:21:07.955	-0.043701	0.508101851852405
01:21:07.955	-0.044037	0.508101851852405
01:21:07.955	-0.04425	0.508101851852405
01:21:07.955	-0.044342	0.508101851852405
01:21:07.955	-0.044128	0.508101851852405
01:21:07.956	-0.043793	0.50925925925982
01:21:07.956	-0.043274	0.50925925925982
01:21:07.956	-0.042725	0.50925925925982
01:21:07.956	-0.042297	0.50925925925982
01:21:07.956	-0.041992	0.50925925925982
01:21:07.957	-0.04184	0.510416666667235
01:21:07.957	-0.042053	0.510416666667235
01:21:07.957	-0.04245	0.510416666667235
01:21:07.957	-0.042877	0.510416666667235
01:21:07.957	-0.043732	0.510416666667235
01:21:07.958	-0.044495	0.511574074073956
01:21:07.958	-0.045288	0.511574074073956
01:21:07.958	-0.046234	0.511574074073956
01:21:07.958	-0.047272	0.511574074073956
01:21:07.958	-0.047943	0.511574074073956
01:21:07.959	-0.049164	0.512731481482065
01:21:07.959	-0.050262	0.512731481482065
01:21:07.959	-0.051666	0.512731481482065
01:21:07.959	-0.053284	0.512731481482065
01:21:07.959	-0.055237	0.512731481482065
01:21:07.960	-0.057098	0.51388888888948
01:21:07.960	-0.059143	0.51388888888948
01:21:07.960	-0.061249	0.51388888888948
01:21:07.960	-0.063385	0.51388888888948
01:21:07.960	-0.065491	0.51388888888948
01:21:07.961	-0.068207	0.515046296296895
01:21:07.961	-0.070496	0.515046296296895
01:21:07.961	-0.072571	0.515046296296895
01:21:07.961	-0.074554	0.515046296296895
01:21:07.961	-0.076538	0.515046296296895
01:21:07.962	-0.077942	0.516203703705004
01:21:07.962	-0.07962	0.516203703705004
01:21:07.962	-0.081268	0.516203703705004
01:21:07.962	-0.083313	0.516203703705004
01:21:07.962	-0.08493	0.516203703705004
01:21:07.963	-0.086304	0.517361111111031
01:21:07.963	-0.087585	0.517361111111031
01:21:07.963	-0.088379	0.517361111111031
01:21:07.963	-0.088684	0.517361111111031
01:21:07.963	-0.08902	0.517361111111031
01:21:07.964	-0.088928	0.51851851851914
01:21:07.964	-0.088898	0.51851851851914
01:21:07.964	-0.088623	0.51851851851914
01:21:07.964	-0.088104	0.51851851851914
01:21:07.964	-0.087158	0.51851851851914
01:21:07.965	-0.086029	0.519675925926555
01:21:07.965	-0.084106	0.519675925926555
01:21:07.965	-0.081879	0.519675925926555
01:21:07.965	-0.079193	0.519675925926555
01:21:07.965	-0.076324	0.519675925926555
01:21:07.966	-0.073273	0.52083333333397
01:21:07.966	-0.070038	0.52083333333397
01:21:07.966	-0.066437	0.52083333333397
01:21:07.966	-0.062531	0.52083333333397
01:21:07.966	-0.058167	0.52083333333397
01:21:07.967	-0.053284	0.521990740740691
01:21:07.967	-0.048035	0.521990740740691
01:21:07.967	-0.04245	0.521990740740691
01:21:07.967	-0.036072	0.521990740740691
01:21:07.967	-0.029358	0.521990740740691
01:21:07.968	-0.022247	0.523148148148106
01:21:07.968	-0.014801	0.523148148148106
01:21:07.968	-0.00705	0.523148148148106
01:21:07.968	0.000519	0.523148148148106
01:21:07.968	0.007965	0.523148148148106
01:21:07.969	0.015472	0.524305555556215
01:21:07.969	0.022888	0.524305555556215
01:21:07.969	0.030121	0.524305555556215
01:21:07.969	0.037201	0.524305555556215
01:21:07.969	0.044556	0.524305555556215
01:21:07.970	0.05188	0.52546296296363
01:21:07.970	0.059296	0.52546296296363
01:21:07.970	0.066833	0.52546296296363
01:21:07.970	0.074677	0.52546296296363
01:21:07.970	0.082428	0.52546296296363
01:21:07.971	0.090424	0.526620370370351
01:21:07.971	0.098755	0.526620370370351
01:21:07.971	0.107147	0.526620370370351
01:21:07.971	0.115723	0.526620370370351
01:21:07.971	0.124908	0.526620370370351
01:21:07.972	0.13443	0.527777777777766
01:21:07.972	0.144165	0.527777777777766
01:21:07.972	0.154236	0.527777777777766
01:21:07.972	0.164581	0.527777777777766
01:21:07.972	0.174835	0.527777777777766
01:21:07.973	0.184875	0.528935185185875
01:21:07.973	0.194336	0.528935185185875
01:21:07.973	0.203156	0.528935185185875
01:21:07.973	0.211121	0.528935185185875
01:21:07.973	0.217896	0.528935185185875
01:21:07.974	0.223297	0.53009259259329
01:21:07.974	0.2276	0.53009259259329
01:21:07.974	0.230652	0.53009259259329
01:21:07.974	0.232452	0.53009259259329
01:21:07.974	0.233124	0.53009259259329
01:21:07.975	0.23288	0.531250000000705
01:21:07.975	0.231445	0.531250000000705
01:21:07.975	0.22937	0.531250000000705
01:21:07.975	0.226105	0.531250000000705
01:21:07.975	0.222412	0.531250000000705
01:21:07.976	0.217773	0.532407407407426
01:21:07.976	0.212616	0.532407407407426
01:21:07.976	0.206573	0.532407407407426
01:21:07.976	0.200378	0.532407407407426
01:21:07.976	0.193207	0.532407407407426
01:21:07.977	0.18573	0.533564814814841
01:21:07.977	0.177765	0.533564814814841
01:21:07.977	0.169678	0.533564814814841
01:21:07.977	0.161072	0.533564814814841
01:21:07.977	0.152588	0.533564814814841
01:21:07.978	0.14389	0.53472222222295
01:21:07.978	0.135162	0.53472222222295
01:21:07.978	0.126129	0.53472222222295
01:21:07.978	0.117249	0.53472222222295
01:21:07.978	0.108154	0.53472222222295
01:21:07.979	0.099152	0.535879629630365
01:21:07.979	0.090088	0.535879629630365
01:21:07.979	0.080994	0.535879629630365
01:21:07.979	0.071747	0.535879629630365
01:21:07.979	0.062256	0.535879629630365
01:21:07.980	0.052429	0.537037037037086
01:21:07.980	0.042236	0.537037037037086
01:21:07.980	0.031372	0.537037037037086
01:21:07.980	0.019745	0.537037037037086
01:21:07.980	0.007324	0.537037037037086
01:21:07.981	-0.006104	0.538194444444501
01:21:07.981	-0.020599	0.538194444444501
01:21:07.981	-0.035706	0.538194444444501
01:21:07.981	-0.051361	0.538194444444501
01:21:07.981	-0.067291	0.538194444444501
01:21:07.982	-0.083557	0.53935185185261
01:21:07.982	-0.099915	0.53935185185261
01:21:07.982	-0.11676	0.53935185185261
01:21:07.982	-0.134094	0.53935185185261
01:21:07.982	-0.152435	0.53935185185261
01:21:07.983	-0.171112	0.540509259260025
01:21:07.983	-0.190521	0.540509259260025
01:21:07.983	-0.210205	0.540509259260025
01:21:07.983	-0.230164	0.540509259260025
01:21:07.983	-0.249634	0.540509259260025
01:21:07.984	-0.269073	0.54166666666744
01:21:07.984	-0.287476	0.54166666666744
01:21:07.984	-0.305054	0.54166666666744
01:21:07.984	-0.321442	0.54166666666744
01:21:07.984	-0.336731	0.54166666666744
01:21:07.985	-0.350464	0.542824074074161
01:21:07.985	-0.36319	0.542824074074161
01:21:07.985	-0.374695	0.542824074074161
01:21:07.985	-0.385193	0.542824074074161
01:21:07.985	-0.394531	0.542824074074161
01:21:07.986	-0.403076	0.543981481481576
01:21:07.986	-0.410767	0.543981481481576
01:21:07.986	-0.417389	0.543981481481576
01:21:07.986	-0.422943	0.543981481481576
01:21:07.986	-0.42749	0.543981481481576
01:21:07.987	-0.430786	0.545138888889685
01:21:07.987	-0.432648	0.545138888889685
01:21:07.987	-0.433563	0.545138888889685
01:21:07.987	-0.433319	0.545138888889685
01:21:07.987	-0.43219	0.545138888889685
01:21:07.988	-0.430084	0.5462962962971
01:21:07.988	-0.427429	0.5462962962971
01:21:07.988	-0.423981	0.5462962962971
01:21:07.988	-0.4198	0.5462962962971
01:21:07.988	-0.414825	0.5462962962971
01:21:07.989	-0.409576	0.547453703703821
01:21:07.989	-0.403595	0.547453703703821
01:21:07.989	-0.397369	0.547453703703821
01:21:07.989	-0.3909	0.547453703703821
01:21:07.989	-0.384277	0.547453703703821
01:21:07.990	-0.377533	0.548611111111236
01:21:07.990	-0.37085	0.548611111111236
01:21:07.990	-0.364166	0.548611111111236
01:21:07.990	-0.35788	0.548611111111236
01:21:07.990	-0.351776	0.548611111111236
01:21:07.991	-0.345612	0.549768518518651
01:21:07.991	-0.339874	0.549768518518651
01:21:07.991	-0.334076	0.549768518518651
01:21:07.991	-0.328156	0.549768518518651
01:21:07.991	-0.322174	0.549768518518651
01:21:07.992	-0.316498	0.55092592592676
01:21:07.992	-0.310669	0.55092592592676
01:21:07.992	-0.305206	0.55092592592676
01:21:07.992	-0.299561	0.55092592592676
01:21:07.992	-0.294189	0.55092592592676
01:21:07.993	-0.288788	0.552083333334175
01:21:07.993	-0.283569	0.552083333334175
01:21:07.993	-0.278168	0.552083333334175
01:21:07.993	-0.273071	0.552083333334175
01:21:07.993	-0.267944	0.552083333334175
01:21:07.994	-0.262787	0.553240740740896
01:21:07.994	-0.257599	0.553240740740896
01:21:07.994	-0.252411	0.553240740740896
01:21:07.994	-0.247314	0.553240740740896
01:21:07.994	-0.242157	0.553240740740896
01:21:07.995	-0.23703	0.554398148148311
01:21:07.995	-0.23172	0.554398148148311
01:21:07.995	-0.226562	0.554398148148311
01:21:07.995	-0.221161	0.554398148148311
01:21:07.995	-0.216034	0.554398148148311
01:21:07.996	-0.211121	0.55555555555642
01:21:07.996	-0.206512	0.55555555555642
01:21:07.996	-0.201813	0.55555555555642
01:21:07.996	-0.197357	0.55555555555642
01:21:07.996	-0.192627	0.55555555555642
01:21:07.997	-0.187958	0.556712962963835
01:21:07.997	-0.18335	0.556712962963835
01:21:07.997	-0.178864	0.556712962963835
01:21:07.997	-0.174438	0.556712962963835
01:21:07.997	-0.170227	0.556712962963835
01:21:07.998	-0.166138	0.557870370370556
01:21:07.998	-0.161926	0.557870370370556
01:21:07.998	-0.157806	0.557870370370556
01:21:07.998	-0.153595	0.557870370370556
01:21:07.998	-0.149353	0.557870370370556
01:21:07.999	-0.144989	0.559027777777971
01:21:07.999	-0.140961	0.559027777777971
01:21:07.999	-0.13681	0.559027777777971
01:21:07.999	-0.132721	0.559027777777971
01:21:07.999	-0.128967	0.559027777777971
01:21:08.000	-0.125122	0.560185185185386
01:21:08.000	-0.121094	0.560185185185386
01:21:08.000	-0.117188	0.560185185185386
01:21:08.000	-0.113403	0.560185185185386
01:21:08.000	-0.109467	0.560185185185386
01:21:08.001	-0.105682	0.561342592593495
01:21:08.001	-0.101959	0.561342592593495
01:21:08.001	-0.098297	0.561342592593495
01:21:08.001	-0.094574	0.561342592593495
01:21:08.001	-0.091034	0.561342592593495
01:21:08.002	-0.087585	0.56250000000091
01:21:08.002	-0.084229	0.56250000000091
01:21:08.002	-0.081024	0.56250000000091
01:21:08.002	-0.078064	0.56250000000091
01:21:08.002	-0.075104	0.56250000000091
01:21:08.003	-0.072418	0.563657407407631
01:21:08.003	-0.069672	0.563657407407631
01:21:08.003	-0.066864	0.563657407407631
01:21:08.003	-0.064148	0.563657407407631
01:21:08.003	-0.061401	0.563657407407631
01:21:08.004	-0.05838	0.564814814815046
01:21:08.004	-0.055786	0.564814814815046
01:21:08.004	-0.053314	0.564814814815046
01:21:08.004	-0.050751	0.564814814815046
01:21:08.004	-0.048676	0.564814814815046
01:21:08.005	-0.046814	0.565972222223154
01:21:08.005	-0.044617	0.565972222223154
01:21:08.005	-0.042419	0.565972222223154
01:21:08.005	-0.040466	0.565972222223154
01:21:08.005	-0.038147	0.565972222223154
01:21:08.006	-0.035828	0.567129629630569
01:21:08.006	-0.033295	0.567129629630569
01:21:08.006	-0.031036	0.567129629630569
01:21:08.006	-0.028961	0.567129629630569
01:21:08.006	-0.026855	0.567129629630569
01:21:08.007	-0.02475	0.568287037037291
01:21:08.007	-0.023285	0.568287037037291
01:21:08.007	-0.021667	0.568287037037291
01:21:08.007	-0.019958	0.568287037037291
01:21:08.007	-0.018463	0.568287037037291
01:21:08.008	-0.017273	0.569444444444706
01:21:08.008	-0.015717	0.569444444444706
01:21:08.008	-0.014435	0.569444444444706
01:21:08.008	-0.013153	0.569444444444706
01:21:08.008	-0.011993	0.569444444444706
01:21:08.009	-0.01059	0.570601851852121
01:21:08.009	-0.009552	0.570601851852121
01:21:08.009	-0.008423	0.570601851852121
01:21:08.009	-0.007324	0.570601851852121
01:21:08.009	-0.006134	0.570601851852121
01:21:08.010	-0.00531	0.571759259260229
01:21:08.010	-0.004517	0.571759259260229
01:21:08.010	-0.003784	0.571759259260229
01:21:08.010	-0.003052	0.571759259260229
01:21:08.010	-0.00235	0.571759259260229
01:21:08.011	-0.001526	0.572916666667644
01:21:08.011	-0.00061	0.572916666667644
01:21:08.011	0.000244	0.572916666667644
01:21:08.011	0.001099	0.572916666667644
01:21:08.011	0.002045	0.572916666667644
01:21:08.012	0.002899	0.574074074074365
01:21:08.012	0.003784	0.574074074074365
01:21:08.012	0.004669	0.574074074074365
01:21:08.012	0.005432	0.574074074074365
01:21:08.012	0.005676	0.574074074074365
01:21:08.013	0.006317	0.57523148148178
01:21:08.013	0.006592	0.57523148148178
01:21:08.013	0.00708	0.57523148148178
01:21:08.013	0.007538	0.57523148148178
01:21:08.013	0.008057	0.57523148148178
01:21:08.014	0.00827	0.576388888889195
01:21:08.014	0.008545	0.576388888889195
01:21:08.014	0.008453	0.576388888889195
01:21:08.014	0.008362	0.576388888889195
01:21:08.014	0.008331	0.576388888889195
01:21:08.015	0.008331	0.577546296297304
01:21:08.015	0.008453	0.577546296297304
01:21:08.015	0.00885	0.577546296297304
01:21:08.015	0.009216	0.577546296297304
01:21:08.015	0.009552	0.577546296297304
01:21:08.016	0.009827	0.578703703704025
01:21:08.016	0.01004	0.578703703704025
01:21:08.016	0.01004	0.578703703704025
01:21:08.016	0.009979	0.578703703704025
01:21:08.016	0.01001	0.578703703704025
01:21:08.017	0.009796	0.57986111111144
01:21:08.017	0.009735	0.57986111111144
01:21:08.017	0.009766	0.57986111111144
01:21:08.017	0.009705	0.57986111111144
01:21:08.017	0.009705	0.57986111111144
01:21:08.018	0.01004	0.581018518518855
01:21:08.018	0.010315	0.581018518518855
01:21:08.018	0.010468	0.581018518518855
01:21:08.018	0.010803	0.581018518518855
01:21:08.018	0.010925	0.581018518518855
01:21:08.019	0.010986	0.582175925926964
01:21:08.019	0.010712	0.582175925926964
01:21:08.019	0.01059	0.582175925926964
01:21:08.019	0.010284	0.582175925926964
01:21:08.019	0.009888	0.582175925926964
01:21:08.020	0.00946	0.583333333334379
01:21:08.020	0.009491	0.583333333334379
01:21:08.020	0.009338	0.583333333334379
01:21:08.020	0.009033	0.583333333334379
01:21:08.020	0.009247	0.583333333334379
01:21:08.021	0.009399	0.5844907407411
01:21:08.021	0.009369	0.5844907407411
01:21:08.021	0.009277	0.5844907407411
01:21:08.021	0.009277	0.5844907407411
01:21:08.021	0.008942	0.5844907407411
01:21:08.022	0.008942	0.585648148148515
01:21:08.022	0.00882	0.585648148148515
01:21:08.022	0.008698	0.585648148148515
01:21:08.022	0.008881	0.585648148148515
01:21:08.022	0.009399	0.585648148148515
01:21:08.023	0.009613	0.58680555555593
01:21:08.023	0.009857	0.58680555555593
01:21:08.023	0.010345	0.58680555555593
01:21:08.023	0.010651	0.58680555555593
01:21:08.023	0.010925	0.58680555555593
01:21:08.024	0.010803	0.587962962964039
01:21:08.024	0.010773	0.587962962964039
01:21:08.024	0.010559	0.587962962964039
01:21:08.024	0.010193	0.587962962964039
01:21:08.024	0.009613	0.587962962964039
01:21:08.025	0.009369	0.58912037037076
01:21:08.025	0.009155	0.58912037037076
01:21:08.025	0.008911	0.58912037037076
01:21:08.025	0.00882	0.58912037037076
01:21:08.025	0.008606	0.58912037037076
01:21:08.026	0.008423	0.590277777778175
01:21:08.026	0.008087	0.590277777778175
01:21:08.026	0.00769	0.590277777778175
01:21:08.026	0.007538	0.590277777778175
01:21:08.026	0.007233	0.590277777778175
01:21:08.027	0.006927	0.59143518518559
01:21:08.027	0.006653	0.59143518518559
01:21:08.027	0.006439	0.59143518518559
01:21:08.027	0.006073	0.59143518518559
01:21:08.027	0.005768	0.59143518518559
01:21:08.028	0.005585	0.592592592593005
01:21:08.028	0.005524	0.592592592593005
01:21:08.028	0.005615	0.592592592593005
01:21:08.028	0.005951	0.592592592593005
01:21:08.028	0.006256	0.592592592593005
01:21:08.029	0.006256	0.593750000001114
01:21:08.029	0.006256	0.593750000001114
01:21:08.029	0.005951	0.593750000001114
01:21:08.029	0.005219	0.593750000001114
01:21:08.029	0.004761	0.593750000001114
01:21:08.030	0.004547	0.594907407407835
01:21:08.030	0.00415	0.594907407407835
01:21:08.030	0.004089	0.594907407407835
01:21:08.030	0.004089	0.594907407407835
01:21:08.030	0.003937	0.594907407407835
01:21:08.031	0.003571	0.59606481481525
01:21:08.031	0.003296	0.59606481481525
01:21:08.031	0.002777	0.59606481481525
01:21:08.031	0.002289	0.59606481481525
01:21:08.031	0.001984	0.59606481481525
01:21:08.032	0.001831	0.597222222222665
01:21:08.032	0.001648	0.597222222222665
01:21:08.032	0.001434	0.597222222222665
01:21:08.032	0.00116	0.597222222222665
01:21:08.032	0.000824	0.597222222222665
01:21:08.033	0.000458	0.598379629630774
01:21:08.033	0.000183	0.598379629630774
01:21:08.033	6.1E-05	0.598379629630774
01:21:08.033	-6.1E-05	0.598379629630774
01:21:08.033	-0.000336	0.598379629630774
01:21:08.034	-0.000488	0.599537037036801
01:21:08.034	-0.000793	0.599537037036801
01:21:08.034	-0.001038	0.599537037036801
01:21:08.034	-0.00119	0.599537037036801
01:21:08.034	-0.00119	0.599537037036801
01:21:08.035	-0.00119	0.60069444444491
01:21:08.035	-0.001099	0.60069444444491
01:21:08.035	-0.001221	0.60069444444491
01:21:08.035	-0.001343	0.60069444444491
01:21:08.035	-0.001617	0.60069444444491
01:21:08.036	-0.002136	0.601851851852325
01:21:08.036	-0.002716	0.601851851852325
01:21:08.036	-0.003479	0.601851851852325
01:21:08.036	-0.003937	0.601851851852325
01:21:08.036	-0.004303	0.601851851852325
01:21:08.037	-0.004395	0.60300925925974
01:21:08.037	-0.004425	0.60300925925974
01:21:08.037	-0.00415	0.60300925925974
01:21:08.037	-0.00412	0.60300925925974
01:21:08.037	-0.00412	0.60300925925974
01:21:08.038	-0.004089	0.604166666666461
01:21:08.038	-0.004547	0.604166666666461
01:21:08.038	-0.005005	0.604166666666461
01:21:08.038	-0.005463	0.604166666666461
01:21:08.038	-0.005859	0.604166666666461
01:21:08.039	-0.006409	0.60532407407457
01:21:08.039	-0.006195	0.60532407407457
01:21:08.039	-0.005768	0.60532407407457
01:21:08.039	-0.005493	0.60532407407457
01:21:08.039	-0.005005	0.60532407407457
01:21:08.040	-0.004547	0.606481481481985
01:21:08.040	-0.004456	0.606481481481985
01:21:08.040	-0.004425	0.606481481481985
01:21:08.040	-0.004456	0.606481481481985
01:21:08.040	-0.004639	0.606481481481985
01:21:08.041	-0.004852	0.6076388888894
01:21:08.041	-0.004944	0.6076388888894
01:21:08.041	-0.005188	0.6076388888894
01:21:08.041	-0.00528	0.6076388888894
01:21:08.041	-0.005524	0.6076388888894
01:21:08.042	-0.005676	0.608796296297509
01:21:08.042	-0.006012	0.608796296297509
01:21:08.042	-0.006226	0.608796296297509
01:21:08.042	-0.006317	0.608796296297509
01:21:08.042	-0.006561	0.608796296297509
01:21:08.043	-0.006897	0.609953703703536
01:21:08.043	-0.007141	0.609953703703536
01:21:08.043	-0.007477	0.609953703703536
01:21:08.043	-0.007965	0.609953703703536
01:21:08.043	-0.008209	0.609953703703536
01:21:08.044	-0.008453	0.611111111111645
01:21:08.044	-0.00827	0.611111111111645
01:21:08.044	-0.008301	0.611111111111645
01:21:08.044	-0.008484	0.611111111111645
01:21:08.044	-0.008545	0.611111111111645
01:21:08.045	-0.008453	0.61226851851906
01:21:08.045	-0.008698	0.61226851851906
01:21:08.045	-0.008698	0.61226851851906
01:21:08.045	-0.008484	0.61226851851906
01:21:08.045	-0.008575	0.61226851851906
01:21:08.046	-0.008911	0.613425925926475
01:21:08.046	-0.009277	0.613425925926475
01:21:08.046	-0.009583	0.613425925926475
01:21:08.046	-0.009949	0.613425925926475
01:21:08.046	-0.010071	0.613425925926475
01:21:08.047	-0.010101	0.614583333333196
01:21:08.047	-0.010223	0.614583333333196
01:21:08.047	-0.010498	0.614583333333196
01:21:08.047	-0.010773	0.614583333333196
01:21:08.047	-0.011353	0.614583333333196
01:21:08.048	-0.012054	0.615740740740611
01:21:08.048	-0.012604	0.615740740740611
01:21:08.048	-0.01297	0.615740740740611
01:21:08.048	-0.013275	0.615740740740611
01:21:08.048	-0.013458	0.615740740740611
01:21:08.049	-0.013519	0.61689814814872
01:21:08.049	-0.013763	0.61689814814872
01:21:08.049	-0.014221	0.61689814814872
01:21:08.049	-0.014465	0.61689814814872
01:21:08.049	-0.014709	0.61689814814872
01:21:08.050	-0.014862	0.618055555556135
01:21:08.050	-0.015045	0.618055555556135
01:21:08.050	-0.015015	0.618055555556135
01:21:08.050	-0.015411	0.618055555556135
01:21:08.050	-0.015167	0.618055555556135
01:21:08.051	-0.009583	0.61921296296355
01:21:08.051	0.001099	0.61921296296355
01:21:08.051	0.01532	0.61921296296355
01:21:08.051	0.032227	0.61921296296355
01:21:08.051	0.049927	0.61921296296355
01:21:08.052	0.062622	0.620370370370271
01:21:08.052	0.070404	0.620370370370271
01:21:08.052	0.073547	0.620370370370271
01:21:08.052	0.073273	0.620370370370271
01:21:08.052	0.070404	0.620370370370271
01:21:08.053	0.065552	0.62152777777838
01:21:08.053	0.059204	0.62152777777838
01:21:08.053	0.052399	0.62152777777838
01:21:08.053	0.045044	0.62152777777838
01:21:08.053	0.037598	0.62152777777838
01:21:08.054	0.030487	0.622685185185795
01:21:08.054	0.02359	0.622685185185795
01:21:08.054	0.016876	0.622685185185795
01:21:08.054	0.010834	0.622685185185795
01:21:08.054	0.004913	0.622685185185795
01:21:08.055	-0.000702	0.62384259259321
01:21:08.055	-0.005646	0.62384259259321
01:21:08.055	-0.01001	0.62384259259321
01:21:08.055	-0.014221	0.62384259259321
01:21:08.055	-0.017639	0.62384259259321
01:21:08.056	-0.020416	0.624999999999931
01:21:08.056	-0.022766	0.624999999999931
01:21:08.056	-0.024658	0.624999999999931
01:21:08.056	-0.026123	0.624999999999931
01:21:08.056	-0.027313	0.624999999999931
01:21:08.057	-0.028503	0.626157407407346
01:21:08.057	-0.029755	0.626157407407346
01:21:08.057	-0.030945	0.626157407407346
01:21:08.057	-0.032104	0.626157407407346
01:21:08.057	-0.033142	0.626157407407346
01:21:08.058	-0.033905	0.627314814815455
01:21:08.058	-0.034546	0.627314814815455
01:21:08.058	-0.035187	0.627314814815455
01:21:08.058	-0.035522	0.627314814815455
01:21:08.058	-0.035889	0.627314814815455
01:21:08.059	-0.036255	0.62847222222287
01:21:08.059	-0.036438	0.62847222222287
01:21:08.059	-0.03653	0.62847222222287
01:21:08.059	-0.036804	0.62847222222287
01:21:08.059	-0.036987	0.62847222222287
01:21:08.060	-0.037384	0.629629629630285
01:21:08.060	-0.037628	0.629629629630285
01:21:08.060	-0.037933	0.629629629630285
01:21:08.060	-0.038361	0.629629629630285
01:21:08.060	-0.038605	0.629629629630285
01:21:08.061	-0.038818	0.630787037037006
01:21:08.061	-0.039368	0.630787037037006
01:21:08.061	-0.039581	0.630787037037006
01:21:08.061	-0.039856	0.630787037037006
01:21:08.061	-0.04007	0.630787037037006
01:21:08.062	-0.040039	0.631944444445115
01:21:08.062	-0.04007	0.631944444445115
01:21:08.062	-0.040314	0.631944444445115
01:21:08.062	-0.040344	0.631944444445115
01:21:08.062	-0.040924	0.631944444445115
01:21:08.063	-0.041473	0.63310185185253
01:21:08.063	-0.041779	0.63310185185253
01:21:08.063	-0.042145	0.63310185185253
01:21:08.063	-0.04245	0.63310185185253
01:21:08.063	-0.042572	0.63310185185253
01:21:08.064	-0.042847	0.634259259259945
01:21:08.064	-0.043427	0.634259259259945
01:21:08.064	-0.044006	0.634259259259945
01:21:08.064	-0.0448	0.634259259259945
01:21:08.064	-0.045563	0.634259259259945
01:21:08.065	-0.046387	0.635416666666666
01:21:08.065	-0.046906	0.635416666666666
01:21:08.065	-0.047485	0.635416666666666
01:21:08.065	-0.048065	0.635416666666666
01:21:08.065	-0.048737	0.635416666666666
01:21:08.066	-0.049408	0.636574074074081
01:21:08.066	-0.050201	0.636574074074081
01:21:08.066	-0.051117	0.636574074074081
01:21:08.066	-0.05188	0.636574074074081
01:21:08.066	-0.052582	0.636574074074081
01:21:08.067	-0.053284	0.63773148148219
01:21:08.067	-0.053955	0.63773148148219
01:21:08.067	-0.054443	0.63773148148219
01:21:08.067	-0.054871	0.63773148148219
01:21:08.067	-0.055267	0.63773148148219
01:21:08.068	-0.055634	0.638888888889605
01:21:08.068	-0.056	0.638888888889605
01:21:08.068	-0.056366	0.638888888889605
01:21:08.068	-0.056915	0.638888888889605
01:21:08.068	-0.057465	0.638888888889605
01:21:08.069	-0.058014	0.64004629629702
01:21:08.069	-0.058594	0.64004629629702
01:21:08.069	-0.059509	0.64004629629702
01:21:08.069	-0.060516	0.64004629629702
01:21:08.069	-0.061493	0.64004629629702
01:21:08.070	-0.062439	0.641203703703741
01:21:08.070	-0.063385	0.641203703703741
01:21:08.070	-0.063873	0.641203703703741
01:21:08.070	-0.06427	0.641203703703741
01:21:08.070	-0.064606	0.641203703703741
01:21:08.071	-0.064606	0.642361111111156
01:21:08.071	-0.064697	0.642361111111156
01:21:08.071	-0.065002	0.642361111111156
01:21:08.071	-0.065277	0.642361111111156
01:21:08.071	-0.065582	0.642361111111156
01:21:08.072	-0.065948	0.643518518519265
01:21:08.072	-0.065979	0.643518518519265
01:21:08.072	-0.065643	0.643518518519265
01:21:08.072	-0.065094	0.643518518519265
01:21:08.072	-0.064117	0.643518518519265
01:21:08.073	-0.063049	0.64467592592668
01:21:08.073	-0.062103	0.64467592592668
01:21:08.073	-0.061157	0.64467592592668
01:21:08.073	-0.06012	0.64467592592668
01:21:08.073	-0.059204	0.64467592592668
01:21:08.074	-0.058502	0.645833333333401
01:21:08.074	-0.057739	0.645833333333401
01:21:08.074	-0.057037	0.645833333333401
01:21:08.074	-0.056458	0.645833333333401
01:21:08.074	-0.055969	0.645833333333401
01:21:08.075	-0.05542	0.646990740740816
01:21:08.075	-0.05481	0.646990740740816
01:21:08.075	-0.054138	0.646990740740816
01:21:08.075	-0.053375	0.646990740740816
01:21:08.075	-0.052795	0.646990740740816
01:21:08.076	-0.052277	0.648148148148925
01:21:08.076	-0.051788	0.648148148148925
01:21:08.076	-0.051361	0.648148148148925
01:21:08.076	-0.050873	0.648148148148925
01:21:08.076	-0.050201	0.648148148148925
01:21:08.077	-0.049377	0.64930555555634
01:21:08.077	-0.048584	0.64930555555634
01:21:08.077	-0.047699	0.64930555555634
01:21:08.077	-0.046844	0.64930555555634
01:21:08.077	-0.045807	0.64930555555634
01:21:08.078	-0.044708	0.650462962963755
01:21:08.078	-0.043274	0.650462962963755
01:21:08.078	-0.041718	0.650462962963755
01:21:08.078	-0.039886	0.650462962963755
01:21:08.078	-0.038269	0.650462962963755
01:21:08.079	-0.036346	0.651620370370476
01:21:08.079	-0.03479	0.651620370370476
01:21:08.079	-0.033478	0.651620370370476
01:21:08.079	-0.032288	0.651620370370476
01:21:08.079	-0.030945	0.651620370370476
01:21:08.080	-0.029846	0.652777777777891
01:21:08.080	-0.028656	0.652777777777891
01:21:08.080	-0.027374	0.652777777777891
01:21:08.080	-0.02652	0.652777777777891
01:21:08.080	-0.02594	0.652777777777891
01:21:08.081	-0.025635	0.653935185186
01:21:08.081	-0.025604	0.653935185186
01:21:08.081	-0.025696	0.653935185186
01:21:08.081	-0.025604	0.653935185186
01:21:08.081	-0.025513	0.653935185186
01:21:08.082	-0.025391	0.655092592593415
01:21:08.082	-0.025238	0.655092592593415
01:21:08.082	-0.025208	0.655092592593415
01:21:08.082	-0.025208	0.655092592593415
01:21:08.082	-0.02533	0.655092592593415
01:21:08.083	-0.025177	0.656250000000136
01:21:08.083	-0.025116	0.656250000000136
01:21:08.083	-0.025024	0.656250000000136
01:21:08.083	-0.024902	0.656250000000136
01:21:08.083	-0.024658	0.656250000000136
01:21:08.084	-0.024841	0.657407407407551
01:21:08.084	-0.024658	0.657407407407551
01:21:08.084	-0.024445	0.657407407407551
01:21:08.084	-0.024353	0.657407407407551
01:21:08.084	-0.0242	0.657407407407551
01:21:08.085	-0.023926	0.65856481481566
01:21:08.085	-0.023804	0.65856481481566
01:21:08.085	-0.023773	0.65856481481566
01:21:08.085	-0.023529	0.65856481481566
01:21:08.085	-0.023376	0.65856481481566
01:21:08.086	-0.023315	0.659722222223075
01:21:08.086	-0.023376	0.659722222223075
01:21:08.086	-0.023346	0.659722222223075
01:21:08.086	-0.023315	0.659722222223075
01:21:08.086	-0.023285	0.659722222223075
01:21:08.087	-0.023041	0.66087962963049
01:21:08.087	-0.022858	0.66087962963049
01:21:08.087	-0.022705	0.66087962963049
01:21:08.087	-0.022675	0.66087962963049
01:21:08.087	-0.022522	0.66087962963049
01:21:08.088	-0.022491	0.662037037037211
01:21:08.088	-0.022644	0.662037037037211
01:21:08.088	-0.022766	0.662037037037211
01:21:08.088	-0.022797	0.662037037037211
01:21:08.088	-0.022949	0.662037037037211
01:21:08.089	-0.023102	0.663194444444626
01:21:08.089	-0.022949	0.663194444444626
01:21:08.089	-0.022491	0.663194444444626
01:21:08.089	-0.022034	0.663194444444626
01:21:08.089	-0.021271	0.663194444444626
01:21:08.090	-0.02066	0.664351851852735
01:21:08.090	-0.020081	0.664351851852735
01:21:08.090	-0.019775	0.664351851852735
01:21:08.090	-0.019562	0.664351851852735
01:21:08.090	-0.019806	0.664351851852735
01:21:08.091	-0.019928	0.66550925926015
01:21:08.091	-0.02005	0.66550925926015
01:21:08.091	-0.020172	0.66550925926015
01:21:08.091	-0.020386	0.66550925926015
01:21:08.091	-0.020477	0.66550925926015
01:21:08.092	-0.020691	0.666666666666871
01:21:08.092	-0.020905	0.666666666666871
01:21:08.092	-0.021484	0.666666666666871
01:21:08.092	-0.022064	0.666666666666871
01:21:08.092	-0.022705	0.666666666666871
01:21:08.093	-0.023224	0.667824074074286
01:21:08.093	-0.024048	0.667824074074286
01:21:08.093	-0.02478	0.667824074074286
01:21:08.093	-0.025452	0.667824074074286
01:21:08.093	-0.026306	0.667824074074286
01:21:08.094	-0.0271	0.668981481481701
01:21:08.094	-0.027557	0.668981481481701
01:21:08.094	-0.027893	0.668981481481701
01:21:08.094	-0.028503	0.668981481481701
01:21:08.094	-0.028625	0.668981481481701
01:21:08.095	-0.028809	0.67013888888981
01:21:08.095	-0.028992	0.67013888888981
01:21:08.095	-0.029083	0.67013888888981
01:21:08.095	-0.028931	0.67013888888981
01:21:08.095	-0.029205	0.67013888888981
01:21:08.096	-0.029572	0.671296296296531
01:21:08.096	-0.030334	0.671296296296531
01:21:08.096	-0.030884	0.671296296296531
01:21:08.096	-0.031403	0.671296296296531
01:21:08.096	-0.031708	0.671296296296531
01:21:08.097	-0.031982	0.672453703703946
01:21:08.097	-0.032104	0.672453703703946
01:21:08.097	-0.032593	0.672453703703946
01:21:08.097	-0.033295	0.672453703703946
01:21:08.097	-0.034027	0.672453703703946
01:21:08.098	-0.034943	0.673611111111361
01:21:08.098	-0.035858	0.673611111111361
01:21:08.098	-0.036499	0.673611111111361
01:21:08.098	-0.037048	0.673611111111361
01:21:08.098	-0.037537	0.673611111111361
01:21:08.099	-0.037994	0.67476851851947
01:21:08.099	-0.038361	0.67476851851947
01:21:08.099	-0.039001	0.67476851851947
01:21:08.099	-0.039459	0.67476851851947
01:21:08.099	-0.040009	0.67476851851947
01:21:08.100	-0.040527	0.675925925926885
01:21:08.100	-0.040924	0.675925925926885
01:21:08.100	-0.041229	0.675925925926885
01:21:08.100	-0.041809	0.675925925926885
01:21:08.100	-0.042053	0.675925925926885
01:21:08.101	-0.042267	0.677083333333606
01:21:08.101	-0.042694	0.677083333333606
01:21:08.101	-0.042908	0.677083333333606
01:21:08.101	-0.042786	0.677083333333606
01:21:08.101	-0.04303	0.677083333333606
01:21:08.102	-0.043091	0.678240740741021
01:21:08.102	-0.043182	0.678240740741021
01:21:08.102	-0.043304	0.678240740741021
01:21:08.102	-0.043732	0.678240740741021
01:21:08.102	-0.044098	0.678240740741021
01:21:08.103	-0.044708	0.679398148148436
01:21:08.103	-0.045105	0.679398148148436
01:21:08.103	-0.045654	0.679398148148436
01:21:08.103	-0.045929	0.679398148148436
01:21:08.103	-0.046143	0.679398148148436
01:21:08.104	-0.046143	0.680555555556545
01:21:08.104	-0.045959	0.680555555556545
01:21:08.104	-0.045715	0.680555555556545
01:21:08.104	-0.045654	0.680555555556545
01:21:08.104	-0.045654	0.680555555556545
01:21:08.105	-0.045868	0.681712962963266
01:21:08.105	-0.046112	0.681712962963266
01:21:08.105	-0.046204	0.681712962963266
01:21:08.105	-0.046265	0.681712962963266
01:21:08.105	-0.046173	0.681712962963266
01:21:08.106	-0.045868	0.682870370370681
01:21:08.106	-0.045471	0.682870370370681
01:21:08.106	-0.045044	0.682870370370681
01:21:08.106	-0.044647	0.682870370370681
01:21:08.106	-0.044373	0.682870370370681
01:21:08.107	-0.044281	0.684027777778096
01:21:08.107	-0.044342	0.684027777778096
01:21:08.107	-0.044617	0.684027777778096
01:21:08.107	-0.044769	0.684027777778096
01:21:08.107	-0.045044	0.684027777778096
01:21:08.108	-0.045044	0.685185185185511
01:21:08.108	-0.045135	0.685185185185511
01:21:08.108	-0.045197	0.685185185185511
