______________________	______________________	______________________	______________________	______________________	
data file :	C:\Users\dmcculloug\Desktop\IOX\data\20171024-rata.mkt
saved on :	
______________________	______________________	______________________	______________________	______________________	
printed on :	december  12, 2018, at  10: 25: 44
export mode :	to text file
print author :	no_logged_user
print com :	no available comment
ecgAuto version :	3.3.5.6 []
original sample freq (Hz) :
	 ECG	2000
	 Bloom Out	2000
undersampling factor :		1
print sample freq (Hz) :		2000
______________________	______________________	______________________	______________________	______________________	

index	time ms	 ECG	
		V	


...................	...................	...................	...................	...................	...................	...................	...................	...................	
zone-start :	PR length exmple	time duration s :	00.00000	data duration s :	01.00000	stream section :	1
in-period :	op 1, p 1, r 1, p[r] 1	Noname #1	0.00e+00	
start period-time :	  00:51:13.501
start CPU time :	october  24, 2017, 14: 14: 42
start site-time :	  00:51:13.502
...................	...................	...................	...................	...................	...................	...................	...................	...................	
1	0.50000	-0.0708	
2	1.00000	-0.0717	
3	1.50000	-0.0696	
4	2.00000	-0.0687	
5	2.50000	-0.0671	
6	3.00000	-0.0677	
7	3.50000	-0.0677	
8	4.00000	-0.0677	
9	4.50000	-0.0684	
10	5.00000	-0.0681	
11	5.50000	-0.0687	
12	6.00000	-0.0656	
13	6.50000	-0.0638	
14	7.00000	-0.0644	
15	7.50000	-0.0647	
16	8.00000	-0.0671	
17	8.50000	-0.0687	
18	9.00000	-0.0702	
19	9.50000	-0.0702	
20	10.00000	-0.0720	
21	10.50000	-0.0742	
22	11.00000	-0.0739	
23	11.50000	-0.0735	
24	12.00000	-0.0732	
25	12.50000	-0.0732	
26	13.00000	-0.0726	
27	13.50000	-0.0732	
28	14.00000	-0.0723	
29	14.50000	-0.0772	
30	15.00000	-0.0778	
31	15.50000	-0.0766	
32	16.00000	-0.0766	
33	16.50000	-0.0745	
34	17.00000	-0.0732	
35	17.50000	-0.0732	
36	18.00000	-0.0720	
37	18.50000	-0.0708	
38	19.00000	-0.0677	
39	19.50000	-0.0677	
40	20.00000	-0.0693	
41	20.50000	-0.0681	
42	21.00000	-0.0684	
43	21.50000	-0.0681	
44	22.00000	-0.0687	
45	22.50000	-0.0659	
46	23.00000	-0.0620	
47	23.50000	-0.0623	
48	24.00000	-0.0616	
49	24.50000	-0.0632	
50	25.00000	-0.0632	
51	25.50000	-0.0644	
52	26.00000	-0.0647	
53	26.50000	-0.0656	
54	27.00000	-0.0650	
55	27.50000	-0.0671	
56	28.00000	-0.0656	
57	28.50000	-0.0635	
58	29.00000	-0.0638	
59	29.50000	-0.0629	
60	30.00000	-0.0620	
61	30.50000	-0.0604	
62	31.00000	-0.0641	
63	31.50000	-0.0647	
64	32.00000	-0.0644	
65	32.50000	-0.0620	
66	33.00000	-0.0610	
67	33.50000	-0.0601	
68	34.00000	-0.0565	
69	34.50000	-0.0558	
70	35.00000	-0.0537	
71	35.50000	-0.0519	
72	36.00000	-0.0510	
73	36.50000	-0.0513	
74	37.00000	-0.0504	
75	37.50000	-0.0494	
76	38.00000	-0.0488	
77	38.50000	-0.0482	
78	39.00000	-0.0473	
79	39.50000	-0.0409	
80	40.00000	-0.0406	
81	40.50000	-0.0403	
82	41.00000	-0.0406	
83	41.50000	-0.0406	
84	42.00000	-0.0424	
85	42.50000	-0.0430	
86	43.00000	-0.0421	
87	43.50000	-0.0427	
88	44.00000	-0.0436	
89	44.50000	-0.0424	
90	45.00000	-0.0421	
91	45.50000	-0.0400	
92	46.00000	-0.0391	
93	46.50000	-0.0385	
94	47.00000	-0.0375	
95	47.50000	-0.0381	
96	48.00000	-0.0412	
97	48.50000	-0.0403	
98	49.00000	-0.0381	
99	49.50000	-0.0369	
100	50.00000	-0.0357	
101	50.50000	-0.0333	
102	51.00000	-0.0323	
103	51.50000	-0.0311	
104	52.00000	-0.0296	
105	52.50000	-0.0269	
106	53.00000	-0.0272	
107	53.50000	-0.0269	
108	54.00000	-0.0272	
109	54.50000	-0.0269	
110	55.00000	-0.0259	
111	55.50000	-0.0259	
112	56.00000	-0.0214	
113	56.50000	-0.0195	
114	57.00000	-0.0204	
115	57.50000	-0.0204	
116	58.00000	-0.0208	
117	58.50000	-0.0220	
118	59.00000	-0.0232	
119	59.50000	-0.0229	
120	60.00000	-0.0229	
121	60.50000	-0.0241	
122	61.00000	-0.0250	
123	61.50000	-0.0232	
124	62.00000	-0.0232	
125	62.50000	-0.0226	
126	63.00000	-0.0223	
127	63.50000	-0.0220	
128	64.00000	-0.0214	
129	64.50000	-0.0266	
130	65.00000	-0.0253	
131	65.50000	-0.0247	
132	66.00000	-0.0235	
133	66.50000	-0.0223	
134	67.00000	-0.0211	
135	67.50000	-0.0198	
136	68.00000	-0.0192	
137	68.50000	-0.0183	
138	69.00000	-0.0165	
139	69.50000	-0.0168	
140	70.00000	-0.0165	
141	70.50000	-0.0171	
142	71.00000	-0.0165	
143	71.50000	-0.0174	
144	72.00000	-0.0165	
145	72.50000	-0.0150	
146	73.00000	-0.0098	
147	73.50000	-0.0110	
148	74.00000	-0.0110	
149	74.50000	-0.0125	
150	75.00000	-0.0134	
151	75.50000	-0.0150	
152	76.00000	-0.0171	
153	76.50000	-0.0171	
154	77.00000	-0.0189	
155	77.50000	-0.0195	
156	78.00000	-0.0180	
157	78.50000	-0.0180	
158	79.00000	-0.0174	
159	79.50000	-0.0162	
160	80.00000	-0.0165	
161	80.50000	-0.0165	
162	81.00000	-0.0198	
163	81.50000	-0.0211	
164	82.00000	-0.0195	
165	82.50000	-0.0192	
166	83.00000	-0.0189	
167	83.50000	-0.0174	
168	84.00000	-0.0162	
169	84.50000	-0.0156	
170	85.00000	-0.0153	
171	85.50000	-0.0137	
172	86.00000	-0.0113	
173	86.50000	-0.0125	
174	87.00000	-0.0134	
175	87.50000	-0.0137	
176	88.00000	-0.0134	
177	88.50000	-0.0140	
178	89.00000	-0.0134	
179	89.50000	-0.0082	
180	90.00000	-0.0076	
181	90.50000	-0.0089	
182	91.00000	-0.0092	
183	91.50000	-0.0098	
184	92.00000	-0.0119	
185	92.50000	-0.0125	
186	93.00000	-0.0131	
187	93.50000	-0.0140	
188	94.00000	-0.0162	
189	94.50000	-0.0150	
190	95.00000	-0.0146	
191	95.50000	-0.0140	
192	96.00000	-0.0134	
193	96.50000	-0.0134	
194	97.00000	-0.0128	
195	97.50000	-0.0143	
196	98.00000	-0.0183	
197	98.50000	-0.0183	
198	99.00000	-0.0174	
199	99.50000	-0.0156	
200	100.00000	-0.0146	
201	100.50000	-0.0134	
202	101.00000	-0.0131	
203	101.50000	-0.0122	
204	102.00000	-0.0107	
205	102.50000	-0.0092	
206	103.00000	-0.0098	
207	103.50000	-0.0101	
208	104.00000	-0.0098	
209	104.50000	-0.0098	
210	105.00000	-0.0098	
211	105.50000	-0.0107	
212	106.00000	-0.0061	
213	106.50000	-0.0043	
214	107.00000	-0.0049	
215	107.50000	-0.0049	
216	108.00000	-0.0061	
217	108.50000	-0.0070	
218	109.00000	-0.0092	
219	109.50000	-0.0085	
220	110.00000	-0.0107	
221	110.50000	-0.0128	
222	111.00000	-0.0122	
223	111.50000	-0.0107	
224	112.00000	-0.0098	
225	112.50000	-0.0104	
226	113.00000	-0.0089	
227	113.50000	-0.0098	
228	114.00000	-0.0079	
229	114.50000	-0.0055	
230	115.00000	 0.0018	
231	115.50000	 0.0058	
232	116.00000	 0.0113	
233	116.50000	 0.0168	
234	117.00000	 0.0296	
235	117.50000	 0.0354	
236	118.00000	 0.0302	
237	118.50000	 0.0302	
238	119.00000	 0.0314	
239	119.50000	 0.0336	
240	120.00000	 0.0385	
241	120.50000	 0.0336	
242	121.00000	 0.0168	
243	121.50000	 0.0162	
244	122.00000	 0.0189	
245	122.50000	-0.0009	
246	123.00000	-0.0143	
247	123.50000	-0.0192	
248	124.00000	-0.0079	
249	124.50000	 0.0058	
250	125.00000	 0.0000	
251	125.50000	 0.0073	
252	126.00000	-0.0076	
253	126.50000	-0.0162	
254	127.00000	-0.0165	
255	127.50000	-0.0067	
256	128.00000	-0.0101	
257	128.50000	-0.0305	
258	129.00000	-0.0360	
259	129.50000	-0.0378	
260	130.00000	-0.0391	
261	130.50000	-0.0397	
262	131.00000	-0.0427	
263	131.50000	-0.0455	
264	132.00000	-0.0455	
265	132.50000	-0.0452	
266	133.00000	-0.0439	
267	133.50000	-0.0418	
268	134.00000	-0.0381	
269	134.50000	-0.0360	
270	135.00000	-0.0351	
271	135.50000	-0.0327	
272	136.00000	-0.0311	
273	136.50000	-0.0305	
274	137.00000	-0.0320	
275	137.50000	-0.0308	
276	138.00000	-0.0299	
277	138.50000	-0.0293	
278	139.00000	-0.0284	
279	139.50000	-0.0226	
280	140.00000	-0.0220	
281	140.50000	-0.0226	
282	141.00000	-0.0217	
283	141.50000	-0.0220	
284	142.00000	-0.0238	
285	142.50000	-0.0232	
286	143.00000	-0.0235	
287	143.50000	-0.0238	
288	144.00000	-0.0238	
289	144.50000	-0.0226	
290	145.00000	-0.0220	
291	145.50000	-0.0208	
292	146.00000	-0.0198	
293	146.50000	-0.0189	
294	147.00000	-0.0180	
295	147.50000	-0.0186	
296	148.00000	-0.0208	
297	148.50000	-0.0214	
298	149.00000	-0.0186	
299	149.50000	-0.0174	
300	150.00000	-0.0156	
301	150.50000	-0.0140	
302	151.00000	-0.0128	
303	151.50000	-0.0122	
304	152.00000	-0.0101	
305	152.50000	-0.0076	
306	153.00000	-0.0076	
307	153.50000	-0.0070	
308	154.00000	-0.0076	
309	154.50000	-0.0061	
310	155.00000	-0.0064	
311	155.50000	-0.0049	
312	156.00000	-0.0015	
313	156.50000	-0.0009	
314	157.00000	 0.0000	
315	157.50000	-0.0009	
316	158.00000	-0.0021	
317	158.50000	-0.0040	
318	159.00000	-0.0046	
319	159.50000	-0.0046	
320	160.00000	-0.0052	
321	160.50000	-0.0067	
322	161.00000	-0.0067	
323	161.50000	-0.0034	
324	162.00000	-0.0009	
325	162.50000	-0.0003	
326	163.00000	 0.0000	
327	163.50000	 0.0018	
328	164.00000	 0.0018	
329	164.50000	-0.0012	
330	165.00000	-0.0015	
331	165.50000	-0.0006	
332	166.00000	 0.0009	
333	166.50000	 0.0018	
334	167.00000	 0.0040	
335	167.50000	 0.0046	
336	168.00000	 0.0064	
337	168.50000	 0.0070	
338	169.00000	 0.0098	
339	169.50000	 0.0098	
340	170.00000	 0.0076	
341	170.50000	 0.0067	
342	171.00000	 0.0043	
343	171.50000	 0.0021	
344	172.00000	-0.0006	
345	172.50000	-0.0058	
346	173.00000	-0.0098	
347	173.50000	-0.0122	
348	174.00000	-0.0092	
349	174.50000	 0.0110	
350	175.00000	 0.0500	
351	175.50000	 0.1282	
352	176.00000	 0.2408	
353	176.50000	 0.4007	
354	177.00000	 0.6085	
355	177.50000	 0.8441	
356	178.00000	 1.0886	
357	178.50000	 1.3260	
358	179.00000	 1.5298	
359	179.50000	 1.6513	
360	180.00000	 1.7053	
361	180.50000	 1.7148	
362	181.00000	 1.6513	
363	181.50000	 1.5213	
364	182.00000	 1.2839	
365	182.50000	 0.8771	
366	183.00000	 0.3934	
367	183.50000	-0.1617	
368	184.00000	-0.6870	
369	184.50000	-1.1349	
370	185.00000	-1.4734	
371	185.50000	-1.6840	
372	186.00000	-1.6574	
373	186.50000	-1.5604	
374	187.00000	-1.3058	
375	187.50000	-0.8380	
376	188.00000	-0.3531	
377	188.50000	-0.0421	
378	189.00000	 0.0967	
379	189.50000	 0.1599	
380	190.00000	 0.1324	
381	190.50000	 0.0504	
382	191.00000	 0.0122	
383	191.50000	 0.0027	
384	192.00000	-0.0293	
385	192.50000	-0.1074	
386	193.00000	-0.1477	
387	193.50000	-0.1505	
388	194.00000	-0.1205	
389	194.50000	-0.0647	
390	195.00000	 0.0070	
391	195.50000	 0.0870	
392	196.00000	 0.1889	
393	196.50000	 0.2460	
394	197.00000	 0.2771	
395	197.50000	 0.2945	
396	198.00000	 0.3033	
397	198.50000	 0.3149	
398	199.00000	 0.3223	
399	199.50000	 0.3278	
400	200.00000	 0.3323	
401	200.50000	 0.3357	
402	201.00000	 0.3372	
403	201.50000	 0.3369	
404	202.00000	 0.3345	
405	202.50000	 0.3326	
406	203.00000	 0.3259	
407	203.50000	 0.3177	
408	204.00000	 0.3079	
409	204.50000	 0.2979	
410	205.00000	 0.2838	
411	205.50000	 0.2719	
412	206.00000	 0.2621	
413	206.50000	 0.2505	
414	207.00000	 0.2359	
415	207.50000	 0.2200	
416	208.00000	 0.2039	
417	208.50000	 0.1871	
418	209.00000	 0.1712	
419	209.50000	 0.1547	
420	210.00000	 0.1395	
421	210.50000	 0.1230	
422	211.00000	 0.1062	
423	211.50000	 0.0949	
424	212.00000	 0.0824	
425	212.50000	 0.0705	
426	213.00000	 0.0580	
427	213.50000	 0.0455	
428	214.00000	 0.0354	
429	214.50000	 0.0192	
430	215.00000	 0.0085	
431	215.50000	-0.0003	
432	216.00000	-0.0089	
433	216.50000	-0.0174	
434	217.00000	-0.0238	
435	217.50000	-0.0305	
436	218.00000	-0.0391	
437	218.50000	-0.0449	
438	219.00000	-0.0494	
439	219.50000	-0.0558	
440	220.00000	-0.0623	
441	220.50000	-0.0681	
442	221.00000	-0.0726	
443	221.50000	-0.0778	
444	222.00000	-0.0818	
445	222.50000	-0.0836	
446	223.00000	-0.0836	
447	223.50000	-0.0870	
448	224.00000	-0.0903	
449	224.50000	-0.0940	
450	225.00000	-0.0961	
451	225.50000	-0.0995	
452	226.00000	-0.1022	
453	226.50000	-0.1044	
454	227.00000	-0.1062	
455	227.50000	-0.1089	
456	228.00000	-0.1089	
457	228.50000	-0.1086	
458	229.00000	-0.1086	
459	229.50000	-0.1086	
460	230.00000	-0.1083	
461	230.50000	-0.1089	
462	231.00000	-0.1114	
463	231.50000	-0.1138	
464	232.00000	-0.1126	
465	232.50000	-0.1117	
466	233.00000	-0.1108	
467	233.50000	-0.1080	
468	234.00000	-0.1062	
469	234.50000	-0.1053	
470	235.00000	-0.1031	
471	235.50000	-0.1013	
472	236.00000	-0.0998	
473	236.50000	-0.0992	
474	237.00000	-0.0980	
475	237.50000	-0.0980	
476	238.00000	-0.0974	
477	238.50000	-0.0958	
478	239.00000	-0.0952	
479	239.50000	-0.0888	
480	240.00000	-0.0870	
481	240.50000	-0.0876	
482	241.00000	-0.0876	
483	241.50000	-0.0873	
484	242.00000	-0.0885	
485	242.50000	-0.0876	
486	243.00000	-0.0870	
487	243.50000	-0.0873	
488	244.00000	-0.0897	
489	244.50000	-0.0876	
490	245.00000	-0.0854	
491	245.50000	-0.0833	
492	246.00000	-0.0818	
493	246.50000	-0.0812	
494	247.00000	-0.0812	
495	247.50000	-0.0815	
496	248.00000	-0.0836	
497	248.50000	-0.0833	
498	249.00000	-0.0818	
499	249.50000	-0.0793	
500	250.00000	-0.0787	
501	250.50000	-0.0760	
502	251.00000	-0.0751	
503	251.50000	-0.0735	
504	252.00000	-0.0720	
505	252.50000	-0.0699	
506	253.00000	-0.0699	
507	253.50000	-0.0699	
508	254.00000	-0.0705	
509	254.50000	-0.0699	
510	255.00000	-0.0693	
511	255.50000	-0.0690	
512	256.00000	-0.0659	
513	256.50000	-0.0632	
514	257.00000	-0.0641	
515	257.50000	-0.0647	
516	258.00000	-0.0650	
517	258.50000	-0.0671	
518	259.00000	-0.0684	
519	259.50000	-0.0687	
520	260.00000	-0.0693	
521	260.50000	-0.0705	
522	261.00000	-0.0720	
523	261.50000	-0.0705	
524	262.00000	-0.0705	
525	262.50000	-0.0699	
526	263.00000	-0.0714	
527	263.50000	-0.0696	
528	264.00000	-0.0699	
529	264.50000	-0.0742	
530	265.00000	-0.0751	
531	265.50000	-0.0748	
532	266.00000	-0.0745	
533	266.50000	-0.0726	
534	267.00000	-0.0717	
535	267.50000	-0.0714	
536	268.00000	-0.0705	
537	268.50000	-0.0708	
538	269.00000	-0.0690	
539	269.50000	-0.0693	
540	270.00000	-0.0699	
541	270.50000	-0.0699	
542	271.00000	-0.0705	
543	271.50000	-0.0702	
544	272.00000	-0.0699	
545	272.50000	-0.0696	
546	273.00000	-0.0653	
547	273.50000	-0.0656	
548	274.00000	-0.0653	
549	274.50000	-0.0674	
550	275.00000	-0.0681	
551	275.50000	-0.0702	
552	276.00000	-0.0702	
553	276.50000	-0.0714	
554	277.00000	-0.0714	
555	277.50000	-0.0732	
556	278.00000	-0.0723	
557	278.50000	-0.0708	
558	279.00000	-0.0702	
559	279.50000	-0.0699	
560	280.00000	-0.0693	
561	280.50000	-0.0693	
562	281.00000	-0.0717	
563	281.50000	-0.0732	
564	282.00000	-0.0720	
565	282.50000	-0.0708	
566	283.00000	-0.0690	
567	283.50000	-0.0674	
568	284.00000	-0.0656	
569	284.50000	-0.0650	
570	285.00000	-0.0632	
571	285.50000	-0.0607	
572	286.00000	-0.0601	
573	286.50000	-0.0595	
574	287.00000	-0.0601	
575	287.50000	-0.0595	
576	288.00000	-0.0595	
577	288.50000	-0.0592	
578	289.00000	-0.0577	
579	289.50000	-0.0528	
580	290.00000	-0.0510	
581	290.50000	-0.0513	
582	291.00000	-0.0519	
583	291.50000	-0.0525	
584	292.00000	-0.0543	
585	292.50000	-0.0528	
586	293.00000	-0.0531	
587	293.50000	-0.0537	
588	294.00000	-0.0543	
589	294.50000	-0.0531	
590	295.00000	-0.0513	
591	295.50000	-0.0507	
592	296.00000	-0.0488	
593	296.50000	-0.0491	
594	297.00000	-0.0488	
595	297.50000	-0.0488	
596	298.00000	-0.0516	
597	298.50000	-0.0504	
598	299.00000	-0.0488	
599	299.50000	-0.0476	
600	300.00000	-0.0455	
601	300.50000	-0.0427	
602	301.00000	-0.0418	
603	301.50000	-0.0406	
604	302.00000	-0.0388	
605	302.50000	-0.0360	
606	303.00000	-0.0357	
607	303.50000	-0.0360	
608	304.00000	-0.0351	
609	304.50000	-0.0357	
610	305.00000	-0.0342	
611	305.50000	-0.0339	
612	306.00000	-0.0299	
613	306.50000	-0.0272	
614	307.00000	-0.0272	
615	307.50000	-0.0269	
616	308.00000	-0.0278	
617	308.50000	-0.0284	
618	309.00000	-0.0293	
619	309.50000	-0.0302	
620	310.00000	-0.0308	
621	310.50000	-0.0308	
622	311.00000	-0.0308	
623	311.50000	-0.0302	
624	312.00000	-0.0293	
625	312.50000	-0.0281	
626	313.00000	-0.0281	
627	313.50000	-0.0272	
628	314.00000	-0.0272	
629	314.50000	-0.0302	
630	315.00000	-0.0299	
631	315.50000	-0.0299	
632	316.00000	-0.0281	
633	316.50000	-0.0278	
634	317.00000	-0.0250	
635	317.50000	-0.0241	
636	318.00000	-0.0232	
637	318.50000	-0.0220	
638	319.00000	-0.0195	
639	319.50000	-0.0186	
640	320.00000	-0.0195	
641	320.50000	-0.0189	
642	321.00000	-0.0198	
643	321.50000	-0.0192	
644	322.00000	-0.0192	
645	322.50000	-0.0180	
646	323.00000	-0.0134	
647	323.50000	-0.0137	
648	324.00000	-0.0140	
649	324.50000	-0.0150	
650	325.00000	-0.0165	
651	325.50000	-0.0180	
652	326.00000	-0.0180	
653	326.50000	-0.0189	
654	327.00000	-0.0192	
655	327.50000	-0.0211	
656	328.00000	-0.0198	
657	328.50000	-0.0189	
658	329.00000	-0.0189	
659	329.50000	-0.0177	
660	330.00000	-0.0189	
661	330.50000	-0.0186	
662	331.00000	-0.0211	
663	331.50000	-0.0226	
664	332.00000	-0.0220	
665	332.50000	-0.0211	
666	333.00000	-0.0195	
667	333.50000	-0.0180	
668	334.00000	-0.0177	
669	334.50000	-0.0168	
670	335.00000	-0.0165	
671	335.50000	-0.0143	
672	336.00000	-0.0134	
673	336.50000	-0.0137	
674	337.00000	-0.0143	
675	337.50000	-0.0140	
676	338.00000	-0.0150	
677	338.50000	-0.0146	
678	339.00000	-0.0134	
679	339.50000	-0.0095	
680	340.00000	-0.0095	
681	340.50000	-0.0098	
682	341.00000	-0.0098	
683	341.50000	-0.0110	
684	342.00000	-0.0128	
685	342.50000	-0.0134	
686	343.00000	-0.0140	
687	343.50000	-0.0150	
688	344.00000	-0.0168	
689	344.50000	-0.0165	
690	345.00000	-0.0153	
691	345.50000	-0.0153	
692	346.00000	-0.0153	
693	346.50000	-0.0143	
694	347.00000	-0.0153	
695	347.50000	-0.0146	
696	348.00000	-0.0189	
697	348.50000	-0.0189	
698	349.00000	-0.0183	
699	349.50000	-0.0168	
700	350.00000	-0.0168	
701	350.50000	-0.0146	
702	351.00000	-0.0143	
703	351.50000	-0.0131	
704	352.00000	-0.0125	
705	352.50000	-0.0095	
706	353.00000	-0.0110	
707	353.50000	-0.0107	
708	354.00000	-0.0107	
709	354.50000	-0.0113	
710	355.00000	-0.0110	
711	355.50000	-0.0101	
712	356.00000	-0.0089	
713	356.50000	-0.0058	
714	357.00000	-0.0058	
715	357.50000	-0.0070	
716	358.00000	-0.0085	
717	358.50000	-0.0101	
718	359.00000	-0.0107	
719	359.50000	-0.0113	
720	360.00000	-0.0119	
721	360.50000	-0.0134	
722	361.00000	-0.0140	
723	361.50000	-0.0137	
724	362.00000	-0.0122	
725	362.50000	-0.0113	
726	363.00000	-0.0110	
727	363.50000	-0.0104	
728	364.00000	-0.0110	
729	364.50000	-0.0153	
730	365.00000	-0.0156	
731	365.50000	-0.0146	
732	366.00000	-0.0140	
733	366.50000	-0.0128	
734	367.00000	-0.0113	
735	367.50000	-0.0104	
736	368.00000	-0.0101	
737	368.50000	-0.0082	
738	369.00000	-0.0064	
739	369.50000	-0.0058	
740	370.00000	-0.0064	
741	370.50000	-0.0089	
742	371.00000	-0.0046	
743	371.50000	 0.0015	
744	372.00000	 0.0070	
745	372.50000	 0.0125	
746	373.00000	 0.0211	
747	373.50000	 0.0275	
748	374.00000	 0.0381	
749	374.50000	 0.0400	
750	375.00000	 0.0339	
751	375.50000	 0.0302	
752	376.00000	 0.0290	
753	376.50000	 0.0317	
754	377.00000	 0.0357	
755	377.50000	 0.0278	
756	378.00000	 0.0128	
757	378.50000	 0.0150	
758	379.00000	 0.0156	
759	379.50000	-0.0079	
760	380.00000	-0.0235	
761	380.50000	-0.0259	
762	381.00000	-0.0140	
763	381.50000	-0.0046	
764	382.00000	-0.0055	
765	382.50000	 0.0015	
766	383.00000	-0.0122	
767	383.50000	-0.0186	
768	384.00000	-0.0137	
769	384.50000	-0.0040	
770	385.00000	-0.0092	
771	385.50000	-0.0281	
772	386.00000	-0.0320	
773	386.50000	-0.0357	
774	387.00000	-0.0363	
775	387.50000	-0.0363	
776	388.00000	-0.0378	
777	388.50000	-0.0388	
778	389.00000	-0.0388	
779	389.50000	-0.0345	
780	390.00000	-0.0333	
781	390.50000	-0.0333	
782	391.00000	-0.0314	
783	391.50000	-0.0311	
784	392.00000	-0.0320	
785	392.50000	-0.0333	
786	393.00000	-0.0327	
787	393.50000	-0.0327	
788	394.00000	-0.0342	
789	394.50000	-0.0333	
790	395.00000	-0.0317	
791	395.50000	-0.0302	
792	396.00000	-0.0293	
793	396.50000	-0.0284	
794	397.00000	-0.0275	
795	397.50000	-0.0272	
796	398.00000	-0.0308	
797	398.50000	-0.0299	
798	399.00000	-0.0281	
799	399.50000	-0.0272	
800	400.00000	-0.0256	
801	400.50000	-0.0226	
802	401.00000	-0.0211	
803	401.50000	-0.0189	
804	402.00000	-0.0180	
805	402.50000	-0.0162	
806	403.00000	-0.0150	
807	403.50000	-0.0150	
808	404.00000	-0.0150	
809	404.50000	-0.0143	
810	405.00000	-0.0143	
811	405.50000	-0.0128	
812	406.00000	-0.0089	
813	406.50000	-0.0067	
814	407.00000	-0.0070	
815	407.50000	-0.0064	
816	408.00000	-0.0067	
817	408.50000	-0.0079	
818	409.00000	-0.0098	
819	409.50000	-0.0095	
820	410.00000	-0.0107	
821	410.50000	-0.0101	
822	411.00000	-0.0092	
823	411.50000	-0.0092	
824	412.00000	-0.0076	
825	412.50000	-0.0076	
826	413.00000	-0.0058	
827	413.50000	-0.0067	
828	414.00000	-0.0058	
829	414.50000	-0.0098	
830	415.00000	-0.0098	
831	415.50000	-0.0098	
832	416.00000	-0.0092	
833	416.50000	-0.0079	
834	417.00000	-0.0061	
835	417.50000	-0.0049	
836	418.00000	-0.0027	
837	418.50000	 0.0000	
838	419.00000	 0.0027	
839	419.50000	 0.0034	
840	420.00000	 0.0040	
841	420.50000	 0.0040	
842	421.00000	 0.0043	
843	421.50000	 0.0043	
844	422.00000	 0.0058	
845	422.50000	 0.0070	
846	423.00000	 0.0122	
847	423.50000	 0.0107	
848	424.00000	 0.0119	
849	424.50000	 0.0116	
850	425.00000	 0.0110	
851	425.50000	 0.0085	
852	426.00000	 0.0082	
853	426.50000	 0.0070	
854	427.00000	 0.0064	
855	427.50000	 0.0021	
856	428.00000	 0.0009	
857	428.50000	 0.0000	
858	429.00000	-0.0040	
859	429.50000	-0.0095	
860	430.00000	-0.0162	
861	430.50000	-0.0180	
862	431.00000	-0.0168	
863	431.50000	 0.0043	
864	432.00000	 0.0482	
865	432.50000	 0.1318	
866	433.00000	 0.2490	
867	433.50000	 0.4156	
868	434.00000	 0.6320	
869	434.50000	 0.8710	
870	435.00000	 1.1136	
871	435.50000	 1.3528	
872	436.00000	 1.5512	
873	436.50000	 1.6644	
874	437.00000	 1.7133	
875	437.50000	 1.7191	
876	438.00000	 1.6504	
877	438.50000	 1.5146	
878	439.00000	 1.2598	
879	439.50000	 0.8472	
880	440.00000	 0.3531	
881	440.50000	-0.2066	
882	441.00000	-0.7269	
883	441.50000	-1.1670	
884	442.00000	-1.5018	
885	442.50000	-1.6907	
886	443.00000	-1.6537	
887	443.50000	-1.5466	
888	444.00000	-1.2738	
889	444.50000	-0.7874	
890	445.00000	-0.3152	
891	445.50000	-0.0253	
892	446.00000	 0.1041	
893	446.50000	 0.1532	
894	447.00000	 0.1187	
895	447.50000	 0.0385	
896	448.00000	 0.0003	
897	448.50000	-0.0061	
898	449.00000	-0.0406	
899	449.50000	-0.1172	
900	450.00000	-0.1520	
901	450.50000	-0.1489	
902	451.00000	-0.1138	
903	451.50000	-0.0562	
904	452.00000	 0.0165	
905	452.50000	 0.0995	
906	453.00000	 0.1987	
907	453.50000	 0.2515	
908	454.00000	 0.2820	
909	454.50000	 0.2988	
910	455.00000	 0.3101	
911	455.50000	 0.3217	
912	456.00000	 0.3326	
913	456.50000	 0.3384	
914	457.00000	 0.3412	
915	457.50000	 0.3433	
916	458.00000	 0.3427	
917	458.50000	 0.3384	
918	459.00000	 0.3354	
919	459.50000	 0.3293	
920	460.00000	 0.3226	
921	460.50000	 0.3137	
922	461.00000	 0.3036	
923	461.50000	 0.2942	
924	462.00000	 0.2829	
925	462.50000	 0.2710	
926	463.00000	 0.2579	
927	463.50000	 0.2441	
928	464.00000	 0.2292	
929	464.50000	 0.2109	
930	465.00000	 0.1944	
931	465.50000	 0.1804	
932	466.00000	 0.1672	
933	466.50000	 0.1514	
934	467.00000	 0.1379	
935	467.50000	 0.1233	
936	468.00000	 0.1099	
937	468.50000	 0.0964	
938	469.00000	 0.0851	
939	469.50000	 0.0732	
940	470.00000	 0.0598	
941	470.50000	 0.0476	
942	471.00000	 0.0360	
943	471.50000	 0.0250	
944	472.00000	 0.0150	
945	472.50000	 0.0052	
946	473.00000	-0.0003	
947	473.50000	-0.0095	
948	474.00000	-0.0180	
949	474.50000	-0.0272	
950	475.00000	-0.0360	
951	475.50000	-0.0461	
952	476.00000	-0.0519	
953	476.50000	-0.0592	
954	477.00000	-0.0671	
955	477.50000	-0.0723	
956	478.00000	-0.0766	
957	478.50000	-0.0800	
958	479.00000	-0.0833	
959	479.50000	-0.0864	
960	480.00000	-0.0900	
961	480.50000	-0.0934	
962	481.00000	-0.0992	
963	481.50000	-0.1038	
964	482.00000	-0.1041	
965	482.50000	-0.1062	
966	483.00000	-0.1068	
967	483.50000	-0.1074	
968	484.00000	-0.1071	
969	484.50000	-0.1065	
970	485.00000	-0.1071	
971	485.50000	-0.1062	
972	486.00000	-0.1053	
973	486.50000	-0.1065	
974	487.00000	-0.1062	
975	487.50000	-0.1065	
976	488.00000	-0.1068	
977	488.50000	-0.1068	
978	489.00000	-0.1065	
979	489.50000	-0.1016	
980	490.00000	-0.1004	
981	490.50000	-0.1010	
982	491.00000	-0.0998	
983	491.50000	-0.1010	
984	492.00000	-0.1025	
985	492.50000	-0.1025	
986	493.00000	-0.1019	
987	493.50000	-0.1022	
988	494.00000	-0.1022	
989	494.50000	-0.1010	
990	495.00000	-0.0998	
991	495.50000	-0.0986	
992	496.00000	-0.0967	
993	496.50000	-0.0958	
994	497.00000	-0.0952	
995	497.50000	-0.0940	
996	498.00000	-0.0977	
997	498.50000	-0.0958	
998	499.00000	-0.0955	
999	499.50000	-0.0925	
1000	500.00000	-0.0909	
1001	500.50000	-0.0885	
1002	501.00000	-0.0864	
1003	501.50000	-0.0851	
1004	502.00000	-0.0833	
1005	502.50000	-0.0790	
1006	503.00000	-0.0806	
1007	503.50000	-0.0793	
1008	504.00000	-0.0790	
1009	504.50000	-0.0781	
1010	505.00000	-0.0781	
1011	505.50000	-0.0769	
1012	506.00000	-0.0739	
1013	506.50000	-0.0702	
1014	507.00000	-0.0699	
1015	507.50000	-0.0690	
1016	508.00000	-0.0702	
1017	508.50000	-0.0717	
1018	509.00000	-0.0723	
1019	509.50000	-0.0732	
1020	510.00000	-0.0742	
1021	510.50000	-0.0739	
1022	511.00000	-0.0742	
1023	511.50000	-0.0726	
1024	512.00000	-0.0723	
1025	512.50000	-0.0717	
1026	513.00000	-0.0717	
1027	513.50000	-0.0705	
1028	514.00000	-0.0696	
1029	514.50000	-0.0751	
1030	515.00000	-0.0742	
1031	515.50000	-0.0739	
1032	516.00000	-0.0729	
1033	516.50000	-0.0720	
1034	517.00000	-0.0705	
1035	517.50000	-0.0699	
1036	518.00000	-0.0696	
1037	518.50000	-0.0687	
1038	519.00000	-0.0659	
1039	519.50000	-0.0665	
1040	520.00000	-0.0665	
1041	520.50000	-0.0681	
1042	521.00000	-0.0687	
1043	521.50000	-0.0690	
1044	522.00000	-0.0690	
1045	522.50000	-0.0684	
1046	523.00000	-0.0641	
1047	523.50000	-0.0641	
1048	524.00000	-0.0647	
1049	524.50000	-0.0656	
1050	525.00000	-0.0681	
1051	525.50000	-0.0699	
1052	526.00000	-0.0708	
1053	526.50000	-0.0720	
1054	527.00000	-0.0717	
1055	527.50000	-0.0742	
1056	528.00000	-0.0735	
1057	528.50000	-0.0726	
1058	529.00000	-0.0729	
1059	529.50000	-0.0723	
1060	530.00000	-0.0720	
1061	530.50000	-0.0732	
1062	531.00000	-0.0745	
1063	531.50000	-0.0766	
1064	532.00000	-0.0763	
1065	532.50000	-0.0751	
1066	533.00000	-0.0742	
1067	533.50000	-0.0726	
1068	534.00000	-0.0714	
1069	534.50000	-0.0717	
1070	535.00000	-0.0693	
1071	535.50000	-0.0690	
1072	536.00000	-0.0662	
1073	536.50000	-0.0662	
1074	537.00000	-0.0671	
1075	537.50000	-0.0671	
1076	538.00000	-0.0659	
1077	538.50000	-0.0665	
1078	539.00000	-0.0647	
1079	539.50000	-0.0604	
1080	540.00000	-0.0586	
1081	540.50000	-0.0592	
1082	541.00000	-0.0604	
1083	541.50000	-0.0613	
1084	542.00000	-0.0620	
1085	542.50000	-0.0632	
1086	543.00000	-0.0620	
1087	543.50000	-0.0623	
1088	544.00000	-0.0641	
1089	544.50000	-0.0635	
1090	545.00000	-0.0613	
1091	545.50000	-0.0604	
1092	546.00000	-0.0595	
1093	546.50000	-0.0589	
1094	547.00000	-0.0586	
1095	547.50000	-0.0580	
1096	548.00000	-0.0613	
1097	548.50000	-0.0598	
1098	549.00000	-0.0592	
1099	549.50000	-0.0580	
1100	550.00000	-0.0568	
1101	550.50000	-0.0528	
1102	551.00000	-0.0531	
1103	551.50000	-0.0513	
1104	552.00000	-0.0500	
1105	552.50000	-0.0467	
1106	553.00000	-0.0470	
1107	553.50000	-0.0455	
1108	554.00000	-0.0452	
1109	554.50000	-0.0455	
1110	555.00000	-0.0443	
1111	555.50000	-0.0430	
1112	556.00000	-0.0394	
1113	556.50000	-0.0369	
1114	557.00000	-0.0363	
1115	557.50000	-0.0360	
1116	558.00000	-0.0363	
1117	558.50000	-0.0385	
1118	559.00000	-0.0378	
1119	559.50000	-0.0385	
1120	560.00000	-0.0381	
1121	560.50000	-0.0391	
1122	561.00000	-0.0391	
1123	561.50000	-0.0381	
1124	562.00000	-0.0366	
1125	562.50000	-0.0351	
1126	563.00000	-0.0345	
1127	563.50000	-0.0336	
1128	564.00000	-0.0333	
1129	564.50000	-0.0366	
1130	565.00000	-0.0360	
1131	565.50000	-0.0357	
1132	566.00000	-0.0345	
1133	566.50000	-0.0333	
1134	567.00000	-0.0308	
1135	567.50000	-0.0299	
1136	568.00000	-0.0293	
1137	568.50000	-0.0272	
1138	569.00000	-0.0256	
1139	569.50000	-0.0238	
1140	570.00000	-0.0241	
1141	570.50000	-0.0250	
1142	571.00000	-0.0253	
1143	571.50000	-0.0247	
1144	572.00000	-0.0238	
1145	572.50000	-0.0223	
1146	573.00000	-0.0177	
1147	573.50000	-0.0171	
1148	574.00000	-0.0174	
1149	574.50000	-0.0177	
1150	575.00000	-0.0189	
1151	575.50000	-0.0208	
1152	576.00000	-0.0195	
1153	576.50000	-0.0214	
1154	577.00000	-0.0220	
1155	577.50000	-0.0223	
1156	578.00000	-0.0226	
1157	578.50000	-0.0229	
1158	579.00000	-0.0204	
1159	579.50000	-0.0208	
1160	580.00000	-0.0204	
1161	580.50000	-0.0204	
1162	581.00000	-0.0229	
1163	581.50000	-0.0250	
1164	582.00000	-0.0232	
1165	582.50000	-0.0223	
1166	583.00000	-0.0217	
1167	583.50000	-0.0208	
1168	584.00000	-0.0189	
1169	584.50000	-0.0180	
1170	585.00000	-0.0171	
1171	585.50000	-0.0165	
1172	586.00000	-0.0150	
1173	586.50000	-0.0153	
1174	587.00000	-0.0150	
1175	587.50000	-0.0156	
1176	588.00000	-0.0156	
1177	588.50000	-0.0143	
1178	589.00000	-0.0153	
1179	589.50000	-0.0104	
1180	590.00000	-0.0098	
1181	590.50000	-0.0107	
1182	591.00000	-0.0119	
1183	591.50000	-0.0128	
1184	592.00000	-0.0137	
1185	592.50000	-0.0153	
1186	593.00000	-0.0153	
1187	593.50000	-0.0168	
1188	594.00000	-0.0180	
1189	594.50000	-0.0174	
1190	595.00000	-0.0168	
1191	595.50000	-0.0162	
1192	596.00000	-0.0162	
1193	596.50000	-0.0153	
1194	597.00000	-0.0143	
1195	597.50000	-0.0156	
1196	598.00000	-0.0192	
1197	598.50000	-0.0192	
1198	599.00000	-0.0189	
1199	599.50000	-0.0183	
1200	600.00000	-0.0180	
1201	600.50000	-0.0146	
1202	601.00000	-0.0150	
1203	601.50000	-0.0146	
1204	602.00000	-0.0134	
1205	602.50000	-0.0119	
1206	603.00000	-0.0107	
1207	603.50000	-0.0122	
1208	604.00000	-0.0122	
1209	604.50000	-0.0125	
1210	605.00000	-0.0113	
1211	605.50000	-0.0119	
1212	606.00000	-0.0092	
1213	606.50000	-0.0070	
1214	607.00000	-0.0082	
1215	607.50000	-0.0085	
1216	608.00000	-0.0098	
1217	608.50000	-0.0098	
1218	609.00000	-0.0122	
1219	609.50000	-0.0122	
1220	610.00000	-0.0137	
1221	610.50000	-0.0140	
1222	611.00000	-0.0140	
1223	611.50000	-0.0150	
1224	612.00000	-0.0128	
1225	612.50000	-0.0140	
1226	613.00000	-0.0137	
1227	613.50000	-0.0134	
1228	614.00000	-0.0131	
1229	614.50000	-0.0165	
1230	615.00000	-0.0171	
1231	615.50000	-0.0165	
1232	616.00000	-0.0150	
1233	616.50000	-0.0150	
1234	617.00000	-0.0137	
1235	617.50000	-0.0125	
1236	618.00000	-0.0122	
1237	618.50000	-0.0104	
1238	619.00000	-0.0085	
1239	619.50000	-0.0085	
1240	620.00000	-0.0076	
1241	620.50000	-0.0092	
1242	621.00000	-0.0101	
1243	621.50000	-0.0085	
1244	622.00000	-0.0079	
1245	622.50000	-0.0085	
1246	623.00000	-0.0034	
1247	623.50000	-0.0037	
1248	624.00000	-0.0046	
1249	624.50000	-0.0055	
1250	625.00000	-0.0058	
1251	625.50000	-0.0067	
1252	626.00000	-0.0082	
1253	626.50000	-0.0089	
1254	627.00000	-0.0095	
1255	627.50000	-0.0110	
1256	628.00000	-0.0040	
1257	628.50000	 0.0021	
1258	629.00000	 0.0089	
1259	629.50000	 0.0125	
1260	630.00000	 0.0171	
1261	630.50000	 0.0266	
1262	631.00000	 0.0330	
1263	631.50000	 0.0259	
1264	632.00000	 0.0247	
1265	632.50000	 0.0256	
1266	633.00000	 0.0256	
1267	633.50000	 0.0323	
1268	634.00000	 0.0357	
1269	634.50000	 0.0201	
1270	635.00000	 0.0140	
1271	635.50000	 0.0204	
1272	636.00000	 0.0073	
1273	636.50000	-0.0153	
1274	637.00000	-0.0235	
1275	637.50000	-0.0189	
1276	638.00000	 0.0003	
1277	638.50000	-0.0037	
1278	639.00000	 0.0055	
1279	639.50000	 0.0034	
1280	640.00000	-0.0061	
1281	640.50000	-0.0128	
1282	641.00000	-0.0027	
1283	641.50000	-0.0009	
1284	642.00000	-0.0211	
1285	642.50000	-0.0345	
1286	643.00000	-0.0354	
1287	643.50000	-0.0400	
1288	644.00000	-0.0397	
1289	644.50000	-0.0403	
1290	645.00000	-0.0409	
1291	645.50000	-0.0421	
1292	646.00000	-0.0418	
1293	646.50000	-0.0412	
1294	647.00000	-0.0400	
1295	647.50000	-0.0385	
1296	648.00000	-0.0409	
1297	648.50000	-0.0409	
1298	649.00000	-0.0385	
1299	649.50000	-0.0381	
1300	650.00000	-0.0360	
1301	650.50000	-0.0339	
1302	651.00000	-0.0336	
1303	651.50000	-0.0311	
1304	652.00000	-0.0296	
1305	652.50000	-0.0262	
1306	653.00000	-0.0269	
1307	653.50000	-0.0262	
1308	654.00000	-0.0256	
1309	654.50000	-0.0250	
1310	655.00000	-0.0241	
1311	655.50000	-0.0235	
1312	656.00000	-0.0195	
1313	656.50000	-0.0177	
1314	657.00000	-0.0162	
1315	657.50000	-0.0168	
1316	658.00000	-0.0168	
1317	658.50000	-0.0171	
1318	659.00000	-0.0183	
1319	659.50000	-0.0174	
1320	660.00000	-0.0189	
1321	660.50000	-0.0186	
1322	661.00000	-0.0183	
1323	661.50000	-0.0174	
1324	662.00000	-0.0156	
1325	662.50000	-0.0150	
1326	663.00000	-0.0146	
1327	663.50000	-0.0134	
1328	664.00000	-0.0131	
1329	664.50000	-0.0165	
1330	665.00000	-0.0165	
1331	665.50000	-0.0146	
1332	666.00000	-0.0143	
1333	666.50000	-0.0125	
1334	667.00000	-0.0095	
1335	667.50000	-0.0092	
1336	668.00000	-0.0082	
1337	668.50000	-0.0067	
1338	669.00000	-0.0049	
1339	669.50000	-0.0034	
1340	670.00000	-0.0040	
1341	670.50000	-0.0040	
1342	671.00000	-0.0037	
1343	671.50000	-0.0037	
1344	672.00000	-0.0040	
1345	672.50000	-0.0021	
1346	673.00000	 0.0015	
1347	673.50000	 0.0012	
1348	674.00000	 0.0012	
1349	674.50000	 0.0003	
1350	675.00000	 0.0015	
1351	675.50000	 0.0009	
1352	676.00000	 0.0024	
1353	676.50000	 0.0027	
1354	677.00000	 0.0021	
1355	677.50000	 0.0003	
1356	678.00000	 0.0015	
1357	678.50000	 0.0027	
1358	679.00000	 0.0040	
1359	679.50000	 0.0043	
1360	680.00000	 0.0046	
1361	680.50000	 0.0055	
1362	681.00000	 0.0027	
1363	681.50000	 0.0012	
1364	682.00000	 0.0018	
1365	682.50000	 0.0031	
1366	683.00000	 0.0031	
1367	683.50000	 0.0046	
1368	684.00000	 0.0055	
1369	684.50000	 0.0043	
1370	685.00000	 0.0027	
1371	685.50000	 0.0021	
1372	686.00000	-0.0034	
1373	686.50000	-0.0107	
1374	687.00000	-0.0171	
1375	687.50000	-0.0156	
1376	688.00000	-0.0046	
1377	688.50000	 0.0272	
1378	689.00000	 0.0870	
1379	689.50000	 0.1907	
1380	690.00000	 0.3290	
1381	690.50000	 0.5157	
1382	691.00000	 0.7446	
1383	691.50000	 0.9879	
1384	692.00000	 1.2256	
1385	692.50000	 1.4502	
1386	693.00000	 1.6104	
1387	693.50000	 1.6907	
1388	694.00000	 1.7194	
1389	694.50000	 1.6940	
1390	695.00000	 1.5930	
1391	695.50000	 1.4157	
1392	696.00000	 1.0727	
1393	696.50000	 0.6216	
1394	697.00000	 0.0833	
1395	697.50000	-0.4672	
1396	698.00000	-0.9567	
1397	698.50000	-1.3348	
1398	699.00000	-1.6302	
1399	699.50000	-1.6891	
1400	700.00000	-1.6202	
1401	700.50000	-1.4417	
1402	701.00000	-1.0690	
1403	701.50000	-0.5469	
1404	702.00000	-0.1501	
1405	702.50000	 0.0461	
1406	703.00000	 0.1404	
1407	703.50000	 0.1468	
1408	704.00000	 0.0790	
1409	704.50000	 0.0159	
1410	705.00000	 0.0003	
1411	705.50000	-0.0101	
1412	706.00000	-0.0696	
1413	706.50000	-0.1309	
1414	707.00000	-0.1489	
1415	707.50000	-0.1312	
1416	708.00000	-0.0861	
1417	708.50000	-0.0232	
1418	709.00000	 0.0500	
1419	709.50000	 0.1422	
1420	710.00000	 0.2252	
1421	710.50000	 0.2628	
1422	711.00000	 0.2847	
1423	711.50000	 0.3000	
1424	712.00000	 0.3131	
1425	712.50000	 0.3223	
1426	713.00000	 0.3284	
1427	713.50000	 0.3326	
1428	714.00000	 0.3357	
1429	714.50000	 0.3320	
1430	715.00000	 0.3311	
1431	715.50000	 0.3302	
1432	716.00000	 0.3265	
1433	716.50000	 0.3223	
1434	717.00000	 0.3168	
1435	717.50000	 0.3101	
1436	718.00000	 0.2994	
1437	718.50000	 0.2896	
1438	719.00000	 0.2798	
1439	719.50000	 0.2673	
1440	720.00000	 0.2533	
1441	720.50000	 0.2386	
1442	721.00000	 0.2234	
1443	721.50000	 0.2094	
1444	722.00000	 0.1938	
1445	722.50000	 0.1785	
1446	723.00000	 0.1675	
1447	723.50000	 0.1529	
1448	724.00000	 0.1379	
1449	724.50000	 0.1224	
1450	725.00000	 0.1065	
1451	725.50000	 0.0916	
1452	726.00000	 0.0775	
1453	726.50000	 0.0641	
1454	727.00000	 0.0510	
1455	727.50000	 0.0372	
1456	728.00000	 0.0266	
1457	728.50000	 0.0171	
1458	729.00000	 0.0067	
1459	729.50000	-0.0018	
1460	730.00000	-0.0119	
1461	730.50000	-0.0192	
1462	731.00000	-0.0302	
1463	731.50000	-0.0400	
1464	732.00000	-0.0479	
1465	732.50000	-0.0534	
1466	733.00000	-0.0595	
1467	733.50000	-0.0644	
1468	734.00000	-0.0677	
1469	734.50000	-0.0723	
1470	735.00000	-0.0763	
1471	735.50000	-0.0790	
1472	736.00000	-0.0812	
1473	736.50000	-0.0851	
1474	737.00000	-0.0897	
1475	737.50000	-0.0925	
1476	738.00000	-0.0946	
1477	738.50000	-0.0974	
1478	739.00000	-0.0989	
1479	739.50000	-0.0952	
1480	740.00000	-0.0961	
1481	740.50000	-0.0989	
1482	741.00000	-0.1004	
1483	741.50000	-0.1035	
1484	742.00000	-0.1056	
1485	742.50000	-0.1074	
1486	743.00000	-0.1080	
1487	743.50000	-0.1086	
1488	744.00000	-0.1108	
1489	744.50000	-0.1102	
1490	745.00000	-0.1102	
1491	745.50000	-0.1086	
1492	746.00000	-0.1083	
1493	746.50000	-0.1071	
1494	747.00000	-0.1071	
1495	747.50000	-0.1056	
1496	748.00000	-0.1102	
1497	748.50000	-0.1105	
1498	749.00000	-0.1083	
1499	749.50000	-0.1053	
1500	750.00000	-0.1035	
1501	750.50000	-0.1013	
1502	751.00000	-0.0995	
1503	751.50000	-0.0986	
1504	752.00000	-0.0970	
1505	752.50000	-0.0931	
1506	753.00000	-0.0937	
1507	753.50000	-0.0925	
1508	754.00000	-0.0909	
1509	754.50000	-0.0906	
1510	755.00000	-0.0888	
1511	755.50000	-0.0894	
1512	756.00000	-0.0851	
1513	756.50000	-0.0809	
1514	757.00000	-0.0806	
1515	757.50000	-0.0806	
1516	758.00000	-0.0809	
1517	758.50000	-0.0809	
1518	759.00000	-0.0818	
1519	759.50000	-0.0815	
1520	760.00000	-0.0812	
1521	760.50000	-0.0821	
1522	761.00000	-0.0827	
1523	761.50000	-0.0812	
1524	762.00000	-0.0793	
1525	762.50000	-0.0781	
1526	763.00000	-0.0775	
1527	763.50000	-0.0772	
1528	764.00000	-0.0766	
1529	764.50000	-0.0800	
1530	765.00000	-0.0790	
1531	765.50000	-0.0778	
1532	766.00000	-0.0775	
1533	766.50000	-0.0751	
1534	767.00000	-0.0729	
1535	767.50000	-0.0723	
1536	768.00000	-0.0717	
1537	768.50000	-0.0705	
1538	769.00000	-0.0681	
1539	769.50000	-0.0681	
1540	770.00000	-0.0681	
1541	770.50000	-0.0681	
1542	771.00000	-0.0674	
1543	771.50000	-0.0681	
1544	772.00000	-0.0681	
1545	772.50000	-0.0681	
1546	773.00000	-0.0616	
1547	773.50000	-0.0623	
1548	774.00000	-0.0641	
1549	774.50000	-0.0653	
1550	775.00000	-0.0662	
1551	775.50000	-0.0677	
1552	776.00000	-0.0687	
1553	776.50000	-0.0693	
1554	777.00000	-0.0705	
1555	777.50000	-0.0723	
1556	778.00000	-0.0723	
1557	778.50000	-0.0720	
1558	779.00000	-0.0705	
1559	779.50000	-0.0708	
1560	780.00000	-0.0708	
1561	780.50000	-0.0714	
1562	781.00000	-0.0735	
1563	781.50000	-0.0760	
1564	782.00000	-0.0763	
1565	782.50000	-0.0748	
1566	783.00000	-0.0751	
1567	783.50000	-0.0739	
1568	784.00000	-0.0729	
1569	784.50000	-0.0723	
1570	785.00000	-0.0714	
1571	785.50000	-0.0699	
1572	786.00000	-0.0690	
1573	786.50000	-0.0684	
1574	787.00000	-0.0699	
1575	787.50000	-0.0702	
1576	788.00000	-0.0699	
1577	788.50000	-0.0693	
1578	789.00000	-0.0690	
1579	789.50000	-0.0656	
1580	790.00000	-0.0647	
1581	790.50000	-0.0641	
1582	791.00000	-0.0647	
1583	791.50000	-0.0653	
1584	792.00000	-0.0665	
1585	792.50000	-0.0677	
1586	793.00000	-0.0690	
1587	793.50000	-0.0693	
1588	794.00000	-0.0714	
1589	794.50000	-0.0693	
1590	795.00000	-0.0687	
1591	795.50000	-0.0684	
1592	796.00000	-0.0677	
1593	796.50000	-0.0659	
1594	797.00000	-0.0653	
1595	797.50000	-0.0650	
1596	798.00000	-0.0690	
1597	798.50000	-0.0693	
1598	799.00000	-0.0681	
1599	799.50000	-0.0656	
1600	800.00000	-0.0644	
1601	800.50000	-0.0620	
1602	801.00000	-0.0613	
1603	801.50000	-0.0601	
1604	802.00000	-0.0592	
1605	802.50000	-0.0558	
1606	803.00000	-0.0558	
1607	803.50000	-0.0555	
1608	804.00000	-0.0552	
1609	804.50000	-0.0546	
1610	805.00000	-0.0549	
1611	805.50000	-0.0531	
1612	806.00000	-0.0494	
1613	806.50000	-0.0461	
1614	807.00000	-0.0470	
1615	807.50000	-0.0461	
1616	808.00000	-0.0470	
1617	808.50000	-0.0476	
1618	809.00000	-0.0485	
1619	809.50000	-0.0479	
1620	810.00000	-0.0479	
1621	810.50000	-0.0482	
1622	811.00000	-0.0482	
1623	811.50000	-0.0479	
1624	812.00000	-0.0446	
1625	812.50000	-0.0449	
1626	813.00000	-0.0439	
1627	813.50000	-0.0433	
1628	814.00000	-0.0421	
1629	814.50000	-0.0464	
1630	815.00000	-0.0455	
1631	815.50000	-0.0439	
1632	816.00000	-0.0433	
1633	816.50000	-0.0406	
1634	817.00000	-0.0385	
1635	817.50000	-0.0369	
1636	818.00000	-0.0363	
1637	818.50000	-0.0351	
1638	819.00000	-0.0323	
1639	819.50000	-0.0317	
1640	820.00000	-0.0311	
1641	820.50000	-0.0311	
1642	821.00000	-0.0305	
1643	821.50000	-0.0308	
1644	822.00000	-0.0293	
1645	822.50000	-0.0293	
1646	823.00000	-0.0232	
1647	823.50000	-0.0235	
1648	824.00000	-0.0232	
1649	824.50000	-0.0253	
1650	825.00000	-0.0241	
1651	825.50000	-0.0266	
1652	826.00000	-0.0262	
1653	826.50000	-0.0262	
1654	827.00000	-0.0266	
1655	827.50000	-0.0281	
1656	828.00000	-0.0269	
1657	828.50000	-0.0259	
1658	829.00000	-0.0253	
1659	829.50000	-0.0250	
1660	830.00000	-0.0238	
1661	830.50000	-0.0235	
1662	831.00000	-0.0250	
1663	831.50000	-0.0272	
1664	832.00000	-0.0272	
1665	832.50000	-0.0262	
1666	833.00000	-0.0247	
1667	833.50000	-0.0232	
1668	834.00000	-0.0223	
1669	834.50000	-0.0208	
1670	835.00000	-0.0198	
1671	835.50000	-0.0195	
1672	836.00000	-0.0168	
1673	836.50000	-0.0168	
1674	837.00000	-0.0168	
1675	837.50000	-0.0177	
1676	838.00000	-0.0174	
1677	838.50000	-0.0174	
1678	839.00000	-0.0171	
1679	839.50000	-0.0122	
1680	840.00000	-0.0110	
1681	840.50000	-0.0125	
1682	841.00000	-0.0131	
1683	841.50000	-0.0137	
1684	842.00000	-0.0153	
1685	842.50000	-0.0162	
1686	843.00000	-0.0165	
1687	843.50000	-0.0174	
1688	844.00000	-0.0186	
1689	844.50000	-0.0186	
1690	845.00000	-0.0183	
1691	845.50000	-0.0177	
1692	846.00000	-0.0171	
1693	846.50000	-0.0168	
1694	847.00000	-0.0174	
1695	847.50000	-0.0162	
1696	848.00000	-0.0214	
1697	848.50000	-0.0204	
1698	849.00000	-0.0192	
1699	849.50000	-0.0195	
1700	850.00000	-0.0183	
1701	850.50000	-0.0162	
1702	851.00000	-0.0153	
1703	851.50000	-0.0140	
1704	852.00000	-0.0143	
1705	852.50000	-0.0113	
1706	853.00000	-0.0113	
1707	853.50000	-0.0128	
1708	854.00000	-0.0128	
1709	854.50000	-0.0137	
1710	855.00000	-0.0140	
1711	855.50000	-0.0134	
1712	856.00000	-0.0104	
1713	856.50000	-0.0082	
1714	857.00000	-0.0079	
1715	857.50000	-0.0085	
1716	858.00000	-0.0092	
1717	858.50000	-0.0104	
1718	859.00000	-0.0131	
1719	859.50000	-0.0125	
1720	860.00000	-0.0143	
1721	860.50000	-0.0150	
1722	861.00000	-0.0165	
1723	861.50000	-0.0146	
1724	862.00000	-0.0146	
1725	862.50000	-0.0143	
1726	863.00000	-0.0140	
1727	863.50000	-0.0137	
1728	864.00000	-0.0137	
1729	864.50000	-0.0168	
1730	865.00000	-0.0177	
1731	865.50000	-0.0177	
1732	866.00000	-0.0165	
1733	866.50000	-0.0156	
1734	867.00000	-0.0137	
1735	867.50000	-0.0134	
1736	868.00000	-0.0125	
1737	868.50000	-0.0125	
1738	869.00000	-0.0101	
1739	869.50000	-0.0101	
1740	870.00000	-0.0098	
1741	870.50000	-0.0101	
1742	871.00000	-0.0107	
1743	871.50000	-0.0110	
1744	872.00000	-0.0104	
1745	872.50000	-0.0092	
1746	873.00000	-0.0052	
1747	873.50000	-0.0052	
1748	874.00000	-0.0058	
1749	874.50000	-0.0064	
1750	875.00000	-0.0076	
1751	875.50000	-0.0089	
1752	876.00000	-0.0095	
1753	876.50000	-0.0104	
1754	877.00000	-0.0107	
1755	877.50000	-0.0131	
1756	878.00000	-0.0113	
1757	878.50000	-0.0107	
1758	879.00000	-0.0101	
1759	879.50000	-0.0098	
1760	880.00000	-0.0101	
1761	880.50000	-0.0098	
1762	881.00000	-0.0113	
1763	881.50000	-0.0131	
1764	882.00000	-0.0134	
1765	882.50000	-0.0119	
1766	883.00000	-0.0110	
1767	883.50000	-0.0104	
1768	884.00000	-0.0089	
1769	884.50000	-0.0095	
1770	885.00000	-0.0082	
1771	885.50000	-0.0064	
1772	886.00000	-0.0049	
1773	886.50000	-0.0061	
1774	887.00000	-0.0058	
1775	887.50000	-0.0058	
1776	888.00000	-0.0061	
1777	888.50000	-0.0024	
1778	889.00000	 0.0034	
1779	889.50000	 0.0137	
1780	890.00000	 0.0189	
1781	890.50000	 0.0232	
1782	891.00000	 0.0284	
1783	891.50000	 0.0381	
1784	892.00000	 0.0372	
1785	892.50000	 0.0317	
1786	893.00000	 0.0308	
1787	893.50000	 0.0287	
1788	894.00000	 0.0311	
1789	894.50000	 0.0357	
1790	895.00000	 0.0284	
1791	895.50000	 0.0146	
1792	896.00000	 0.0171	
1793	896.50000	 0.0159	
1794	897.00000	-0.0082	
1795	897.50000	-0.0229	
1796	898.00000	-0.0296	
1797	898.50000	-0.0146	
1798	899.00000	-0.0037	
1799	899.50000	-0.0046	
1800	900.00000	 0.0027	
1801	900.50000	-0.0095	
1802	901.00000	-0.0180	
1803	901.50000	-0.0122	
1804	902.00000	-0.0018	
1805	902.50000	-0.0064	
1806	903.00000	-0.0281	
1807	903.50000	-0.0320	
1808	904.00000	-0.0357	
1809	904.50000	-0.0363	
1810	905.00000	-0.0360	
1811	905.50000	-0.0375	
1812	906.00000	-0.0360	
1813	906.50000	-0.0339	
1814	907.00000	-0.0345	
1815	907.50000	-0.0336	
1816	908.00000	-0.0345	
1817	908.50000	-0.0336	
1818	909.00000	-0.0342	
1819	909.50000	-0.0339	
1820	910.00000	-0.0339	
1821	910.50000	-0.0342	
1822	911.00000	-0.0351	
1823	911.50000	-0.0320	
1824	912.00000	-0.0317	
1825	912.50000	-0.0302	
1826	913.00000	-0.0293	
1827	913.50000	-0.0290	
1828	914.00000	-0.0278	
1829	914.50000	-0.0308	
1830	915.00000	-0.0311	
1831	915.50000	-0.0305	
1832	916.00000	-0.0284	
1833	916.50000	-0.0259	
1834	917.00000	-0.0238	
1835	917.50000	-0.0229	
1836	918.00000	-0.0217	
1837	918.50000	-0.0198	
1838	919.00000	-0.0174	
1839	919.50000	-0.0165	
1840	920.00000	-0.0156	
1841	920.50000	-0.0153	
1842	921.00000	-0.0143	
1843	921.50000	-0.0140	
1844	922.00000	-0.0140	
1845	922.50000	-0.0128	
1846	923.00000	-0.0079	
1847	923.50000	-0.0076	
1848	924.00000	-0.0070	
1849	924.50000	-0.0067	
1850	925.00000	-0.0085	
1851	925.50000	-0.0095	
1852	926.00000	-0.0092	
1853	926.50000	-0.0098	
1854	927.00000	-0.0095	
1855	927.50000	-0.0107	
1856	928.00000	-0.0095	
1857	928.50000	-0.0089	
1858	929.00000	-0.0076	
1859	929.50000	-0.0076	
1860	930.00000	-0.0055	
1861	930.50000	-0.0055	
1862	931.00000	-0.0076	
1863	931.50000	-0.0104	
1864	932.00000	-0.0098	
1865	932.50000	-0.0095	
1866	933.00000	-0.0076	
1867	933.50000	-0.0067	
1868	934.00000	-0.0046	
1869	934.50000	-0.0052	
1870	935.00000	-0.0034	
1871	935.50000	-0.0003	
1872	936.00000	 0.0031	
1873	936.50000	 0.0031	
1874	937.00000	 0.0046	
1875	937.50000	 0.0031	
1876	938.00000	 0.0046	
1877	938.50000	 0.0043	
1878	939.00000	 0.0061	
1879	939.50000	 0.0107	
1880	940.00000	 0.0119	
1881	940.50000	 0.0119	
1882	941.00000	 0.0113	
1883	941.50000	 0.0104	
1884	942.00000	 0.0095	
1885	942.50000	 0.0089	
1886	943.00000	 0.0089	
1887	943.50000	 0.0067	
1888	944.00000	 0.0055	
1889	944.50000	 0.0040	
1890	945.00000	 0.0034	
1891	945.50000	 0.0012	
1892	946.00000	-0.0003	
1893	946.50000	-0.0046	
1894	947.00000	-0.0125	
1895	947.50000	-0.0183	
1896	948.00000	-0.0229	
1897	948.50000	-0.0137	
1898	949.00000	 0.0183	
1899	949.50000	 0.0757	
1900	950.00000	 0.1724	
1901	950.50000	 0.3085	
1902	951.00000	 0.4926	
1903	951.50000	 0.7211	
1904	952.00000	 0.9662	
1905	952.50000	 1.2088	
1906	953.00000	 1.4380	
1907	953.50000	 1.6061	
1908	954.00000	 1.6919	
1909	954.50000	 1.7239	
1910	955.00000	 1.7050	
1911	955.50000	 1.6083	
1912	956.00000	 1.4413	
1913	956.50000	 1.1169	
1914	957.00000	 0.6689	
1915	957.50000	 0.1349	
1916	958.00000	-0.4211	
1917	958.50000	-0.9146	
1918	959.00000	-1.3052	
1919	959.50000	-1.6132	
1920	960.00000	-1.6931	
1921	960.50000	-1.6272	
1922	961.00000	-1.4645	
1923	961.50000	-1.1057	
1924	962.00000	-0.5829	
1925	962.50000	-0.1755	
1926	963.00000	 0.0320	
1927	963.50000	 0.1318	
1928	964.00000	 0.1453	
1929	964.50000	 0.0793	
1930	965.00000	 0.0128	
1931	965.50000	-0.0049	
1932	966.00000	-0.0140	
1933	966.50000	-0.0708	
1934	967.00000	-0.1349	
1935	967.50000	-0.1535	
1936	968.00000	-0.1358	
1937	968.50000	-0.0903	
1938	969.00000	-0.0259	
1939	969.50000	 0.0491	
1940	970.00000	 0.1382	
1941	970.50000	 0.2267	
1942	971.00000	 0.2667	
1943	971.50000	 0.2902	
1944	972.00000	 0.3043	
1945	972.50000	 0.3168	
1946	973.00000	 0.3305	
1947	973.50000	 0.3354	
1948	974.00000	 0.3394	
1949	974.50000	 0.3415	
1950	975.00000	 0.3412	
1951	975.50000	 0.3394	
1952	976.00000	 0.3357	
1953	976.50000	 0.3311	
1954	977.00000	 0.3244	
1955	977.50000	 0.3168	
1956	978.00000	 0.3082	
1957	978.50000	 0.2991	
1958	979.00000	 0.2881	
1959	979.50000	 0.2762	
1960	980.00000	 0.2634	
1961	980.50000	 0.2490	
1962	981.00000	 0.2344	
1963	981.50000	 0.2164	
1964	982.00000	 0.2017	
1965	982.50000	 0.1877	
1966	983.00000	 0.1727	
1967	983.50000	 0.1581	
1968	984.00000	 0.1447	
1969	984.50000	 0.1303	
1970	985.00000	 0.1163	
1971	985.50000	 0.1041	
1972	986.00000	 0.0916	
1973	986.50000	 0.0778	
1974	987.00000	 0.0641	
1975	987.50000	 0.0528	
1976	988.00000	 0.0400	
1977	988.50000	 0.0293	
1978	989.00000	 0.0189	
1979	989.50000	 0.0131	
1980	990.00000	 0.0040	
1981	990.50000	-0.0049	
1982	991.00000	-0.0146	
1983	991.50000	-0.0241	
1984	992.00000	-0.0336	
1985	992.50000	-0.0412	
1986	993.00000	-0.0504	
1987	993.50000	-0.0568	
1988	994.00000	-0.0632	
1989	994.50000	-0.0699	
1990	995.00000	-0.0735	
1991	995.50000	-0.0772	
1992	996.00000	-0.0815	
1993	996.50000	-0.0842	
1994	997.00000	-0.0876	
1995	997.50000	-0.0916	
1996	998.00000	-0.0980	
1997	998.50000	-0.1010	
1998	999.00000	-0.1025	
1999	999.50000	-0.1044	
2000	1000.00000	-0.1053	
end of complete data
______________________	______________________	______________________	______________________	______________________	
