______________________	______________________	______________________	______________________	______________________	______________________	
data file :	C:\Users\dmcculloug\Desktop\IOX\data\20171024-ratb.mkt
saved on :	
______________________	______________________	______________________	______________________	______________________	______________________	
printed on :	december  12, 2018, at  15: 52: 19
export mode :	to text file
print author :	no_logged_user
print com :	no available comment
ecgAuto version :	3.3.5.6 []
original sample freq (Hz) :
	 ECG	2000
	 Cam Fire	2000
	 Bloom Out	2000
undersampling factor :		1
print sample freq (Hz) :		2000
______________________	______________________	______________________	______________________	______________________	______________________	

index	time ms	 ECG	
		V	


...................	...................	...................	...................	...................	...................	...................	...................	...................	...................	
zone-start :	PR _length	time duration s :	00.00000	data duration s :	01.00000	stream section :	1
in-period :	op 1, p 1, r 1, p[r] 1	Noname #1	0.00e+00	
start period-time :	  00:51:12.501
start CPU time :	october  24, 2017, 15: 55: 09
start site-time :	  00:51:12.502
...................	...................	...................	...................	...................	...................	...................	...................	...................	...................	
1	0.50000	 0.0439	
2	1.00000	 0.0513	
3	1.50000	 0.0693	
4	2.00000	 0.0766	
5	2.50000	 0.0735	
6	3.00000	 0.0696	
7	3.50000	 0.0668	
8	4.00000	 0.0629	
9	4.50000	 0.0537	
10	5.00000	 0.0513	
11	5.50000	 0.0500	
12	6.00000	 0.0494	
13	6.50000	 0.0497	
14	7.00000	 0.0470	
15	7.50000	 0.0427	
16	8.00000	 0.0436	
17	8.50000	 0.0409	
18	9.00000	 0.0421	
19	9.50000	 0.0452	
20	10.00000	 0.0424	
21	10.50000	 0.0403	
22	11.00000	 0.0372	
23	11.50000	 0.0354	
24	12.00000	 0.0339	
25	12.50000	 0.0342	
26	13.00000	 0.0397	
27	13.50000	 0.0369	
28	14.00000	 0.0339	
29	14.50000	 0.0311	
30	15.00000	 0.0244	
31	15.50000	 0.0290	
32	16.00000	 0.0272	
33	16.50000	 0.0229	
34	17.00000	 0.0226	
35	17.50000	 0.0183	
36	18.00000	 0.0131	
37	18.50000	 0.0137	
38	19.00000	 0.0128	
39	19.50000	 0.0116	
40	20.00000	 0.0122	
41	20.50000	 0.0110	
42	21.00000	 0.0058	
43	21.50000	 0.0000	
44	22.00000	 0.0000	
45	22.50000	 0.0012	
46	23.00000	 0.0027	
47	23.50000	 0.0046	
48	24.00000	 0.0027	
49	24.50000	 0.0070	
50	25.00000	 0.0098	
51	25.50000	 0.0098	
52	26.00000	 0.0183	
53	26.50000	 0.0235	
54	27.00000	 0.0372	
55	27.50000	 0.0623	
56	28.00000	 0.0967	
57	28.50000	 0.1416	
58	29.00000	 0.2051	
59	29.50000	 0.2902	
60	30.00000	 0.3915	
61	30.50000	 0.5234	
62	31.00000	 0.6686	
63	31.50000	 0.8218	
64	32.00000	 1.0135	
65	32.50000	 1.2289	
66	33.00000	 1.4197	
67	33.50000	 1.5735	
68	34.00000	 1.6800	
69	34.50000	 1.7035	
70	35.00000	 1.6629	
71	35.50000	 1.5805	
72	36.00000	 1.3724	
73	36.50000	 1.0385	
74	37.00000	 0.5743	
75	37.50000	-0.0558	
76	38.00000	-0.7599	
77	38.50000	-1.3010	
78	39.00000	-1.6806	
79	39.50000	-1.8643	
80	40.00000	-1.8240	
81	40.50000	-1.6666	
82	41.00000	-1.4151	
83	41.50000	-1.1319	
84	42.00000	-0.8185	
85	42.50000	-0.5624	
86	43.00000	-0.3333	
87	43.50000	-0.1990	
88	44.00000	-0.0842	
89	44.50000	-0.0064	
90	45.00000	 0.0513	
91	45.50000	 0.1074	
92	46.00000	 0.1654	
93	46.50000	 0.2179	
94	47.00000	 0.2545	
95	47.50000	 0.2802	
96	48.00000	 0.3064	
97	48.50000	 0.3293	
98	49.00000	 0.3537	
99	49.50000	 0.3662	
100	50.00000	 0.3815	
101	50.50000	 0.3937	
102	51.00000	 0.4028	
103	51.50000	 0.4135	
104	52.00000	 0.4242	
105	52.50000	 0.4349	
106	53.00000	 0.4431	
107	53.50000	 0.4498	
108	54.00000	 0.4538	
109	54.50000	 0.4514	
110	55.00000	 0.4538	
111	55.50000	 0.4559	
112	56.00000	 0.4553	
113	56.50000	 0.4553	
114	57.00000	 0.4498	
115	57.50000	 0.4413	
116	58.00000	 0.4370	
117	58.50000	 0.4272	
118	59.00000	 0.4175	
119	59.50000	 0.4089	
120	60.00000	 0.3934	
121	60.50000	 0.3760	
122	61.00000	 0.3568	
123	61.50000	 0.3378	
124	62.00000	 0.3180	
125	62.50000	 0.2985	
126	63.00000	 0.2832	
127	63.50000	 0.2606	
128	64.00000	 0.2368	
129	64.50000	 0.2124	
130	65.00000	 0.1859	
131	65.50000	 0.1678	
132	66.00000	 0.1437	
133	66.50000	 0.1212	
134	67.00000	 0.1004	
135	67.50000	 0.0769	
136	68.00000	 0.0555	
137	68.50000	 0.0372	
138	69.00000	 0.0198	
139	69.50000	 0.0040	
140	70.00000	-0.0107	
141	70.50000	-0.0259	
142	71.00000	-0.0427	
143	71.50000	-0.0613	
144	72.00000	-0.0723	
145	72.50000	-0.0806	
146	73.00000	-0.0891	
147	73.50000	-0.0967	
148	74.00000	-0.1089	
149	74.50000	-0.1120	
150	75.00000	-0.1184	
151	75.50000	-0.1239	
152	76.00000	-0.1248	
153	76.50000	-0.1273	
154	77.00000	-0.1318	
155	77.50000	-0.1364	
156	78.00000	-0.1401	
157	78.50000	-0.1437	
158	79.00000	-0.1437	
159	79.50000	-0.1398	
160	80.00000	-0.1410	
161	80.50000	-0.1443	
162	81.00000	-0.1471	
163	81.50000	-0.1523	
164	82.00000	-0.1532	
165	82.50000	-0.1529	
166	83.00000	-0.1572	
167	83.50000	-0.1590	
168	84.00000	-0.1608	
169	84.50000	-0.1660	
170	85.00000	-0.1678	
171	85.50000	-0.1666	
172	86.00000	-0.1672	
173	86.50000	-0.1675	
174	87.00000	-0.1672	
175	87.50000	-0.1706	
176	88.00000	-0.1764	
177	88.50000	-0.1764	
178	89.00000	-0.1755	
179	89.50000	-0.1736	
180	90.00000	-0.1675	
181	90.50000	-0.1718	
182	91.00000	-0.1712	
183	91.50000	-0.1675	
184	92.00000	-0.1657	
185	92.50000	-0.1627	
186	93.00000	-0.1584	
187	93.50000	-0.1566	
188	94.00000	-0.1575	
189	94.50000	-0.1550	
190	95.00000	-0.1556	
191	95.50000	-0.1550	
192	96.00000	-0.1480	
193	96.50000	-0.1422	
194	97.00000	-0.1419	
195	97.50000	-0.1428	
196	98.00000	-0.1443	
197	98.50000	-0.1462	
198	99.00000	-0.1416	
199	99.50000	-0.1447	
200	100.00000	-0.1462	
201	100.50000	-0.1450	
202	101.00000	-0.1486	
203	101.50000	-0.1489	
204	102.00000	-0.1483	
205	102.50000	-0.1483	
206	103.00000	-0.1459	
207	103.50000	-0.1477	
208	104.00000	-0.1468	
209	104.50000	-0.1532	
210	105.00000	-0.1532	
211	105.50000	-0.1514	
212	106.00000	-0.1501	
213	106.50000	-0.1468	
214	107.00000	-0.1465	
215	107.50000	-0.1471	
216	108.00000	-0.1434	
217	108.50000	-0.1425	
218	109.00000	-0.1385	
219	109.50000	-0.1324	
220	110.00000	-0.1309	
221	110.50000	-0.1300	
222	111.00000	-0.1291	
223	111.50000	-0.1282	
224	112.00000	-0.1257	
225	112.50000	-0.1227	
226	113.00000	-0.1151	
227	113.50000	-0.1132	
228	114.00000	-0.1138	
229	114.50000	-0.1147	
230	115.00000	-0.1181	
231	115.50000	-0.1141	
232	116.00000	-0.1132	
233	116.50000	-0.1154	
234	117.00000	-0.1141	
235	117.50000	-0.1160	
236	118.00000	-0.1184	
237	118.50000	-0.1166	
238	119.00000	-0.1166	
239	119.50000	-0.1154	
240	120.00000	-0.1147	
241	120.50000	-0.1129	
242	121.00000	-0.1175	
243	121.50000	-0.1205	
244	122.00000	-0.1175	
245	122.50000	-0.1163	
246	123.00000	-0.1141	
247	123.50000	-0.1099	
248	124.00000	-0.1126	
249	124.50000	-0.1074	
250	125.00000	-0.1062	
251	125.50000	-0.1031	
252	126.00000	-0.0977	
253	126.50000	-0.0943	
254	127.00000	-0.0931	
255	127.50000	-0.0906	
256	128.00000	-0.0900	
257	128.50000	-0.0885	
258	129.00000	-0.0864	
259	129.50000	-0.0775	
260	130.00000	-0.0751	
261	130.50000	-0.0745	
262	131.00000	-0.0742	
263	131.50000	-0.0760	
264	132.00000	-0.0748	
265	132.50000	-0.0729	
266	133.00000	-0.0751	
267	133.50000	-0.0742	
268	134.00000	-0.0745	
269	134.50000	-0.0784	
270	135.00000	-0.0772	
271	135.50000	-0.0763	
272	136.00000	-0.0745	
273	136.50000	-0.0739	
274	137.00000	-0.0732	
275	137.50000	-0.0742	
276	138.00000	-0.0800	
277	138.50000	-0.0793	
278	139.00000	-0.0769	
279	139.50000	-0.0751	
280	140.00000	-0.0696	
281	140.50000	-0.0717	
282	141.00000	-0.0714	
283	141.50000	-0.0653	
284	142.00000	-0.0653	
285	142.50000	-0.0601	
286	143.00000	-0.0558	
287	143.50000	-0.0549	
288	144.00000	-0.0543	
289	144.50000	-0.0531	
290	145.00000	-0.0525	
291	145.50000	-0.0504	
292	146.00000	-0.0446	
293	146.50000	-0.0369	
294	147.00000	-0.0388	
295	147.50000	-0.0378	
296	148.00000	-0.0400	
297	148.50000	-0.0418	
298	149.00000	-0.0360	
299	149.50000	-0.0388	
300	150.00000	-0.0403	
301	150.50000	-0.0397	
302	151.00000	-0.0430	
303	151.50000	-0.0446	
304	152.00000	-0.0446	
305	152.50000	-0.0430	
306	153.00000	-0.0427	
307	153.50000	-0.0412	
308	154.00000	-0.0427	
309	154.50000	-0.0488	
310	155.00000	-0.0488	
311	155.50000	-0.0488	
312	156.00000	-0.0467	
313	156.50000	-0.0430	
314	157.00000	-0.0455	
315	157.50000	-0.0439	
316	158.00000	-0.0400	
317	158.50000	-0.0388	
318	159.00000	-0.0360	
319	159.50000	-0.0299	
320	160.00000	-0.0296	
321	160.50000	-0.0272	
322	161.00000	-0.0293	
323	161.50000	-0.0272	
324	162.00000	-0.0269	
325	162.50000	-0.0232	
326	163.00000	-0.0156	
327	163.50000	-0.0146	
328	164.00000	-0.0156	
329	164.50000	-0.0177	
330	165.00000	-0.0214	
331	165.50000	-0.0174	
332	166.00000	-0.0180	
333	166.50000	-0.0198	
334	167.00000	-0.0195	
335	167.50000	-0.0217	
336	168.00000	-0.0250	
337	168.50000	-0.0253	
338	169.00000	-0.0247	
339	169.50000	-0.0247	
340	170.00000	-0.0247	
341	170.50000	-0.0238	
342	171.00000	-0.0272	
343	171.50000	-0.0339	
344	172.00000	-0.0308	
345	172.50000	-0.0296	
346	173.00000	-0.0284	
347	173.50000	-0.0253	
348	174.00000	-0.0299	
349	174.50000	-0.0262	
350	175.00000	-0.0235	
351	175.50000	-0.0229	
352	176.00000	-0.0174	
353	176.50000	-0.0150	
354	177.00000	-0.0140	
355	177.50000	-0.0137	
356	178.00000	-0.0137	
357	178.50000	-0.0128	
358	179.00000	-0.0122	
359	179.50000	-0.0040	
360	180.00000	-0.0015	
361	180.50000	-0.0043	
362	181.00000	-0.0043	
363	181.50000	-0.0061	
364	182.00000	-0.0064	
365	182.50000	-0.0037	
366	183.00000	-0.0082	
367	183.50000	-0.0089	
368	184.00000	-0.0104	
369	184.50000	-0.0146	
370	185.00000	-0.0146	
371	185.50000	-0.0143	
372	186.00000	-0.0143	
373	186.50000	-0.0134	
374	187.00000	-0.0137	
375	187.50000	-0.0156	
376	188.00000	-0.0220	
377	188.50000	-0.0217	
378	189.00000	-0.0220	
379	189.50000	-0.0208	
380	190.00000	-0.0165	
381	190.50000	-0.0186	
382	191.00000	-0.0177	
383	191.50000	-0.0143	
384	192.00000	-0.0137	
385	192.50000	-0.0104	
386	193.00000	-0.0064	
387	193.50000	-0.0055	
388	194.00000	-0.0058	
389	194.50000	-0.0055	
390	195.00000	-0.0061	
391	195.50000	-0.0046	
392	196.00000	-0.0006	
393	196.50000	 0.0052	
394	197.00000	 0.0043	
395	197.50000	 0.0040	
396	198.00000	 0.0021	
397	198.50000	-0.0009	
398	199.00000	 0.0034	
399	199.50000	-0.0009	
400	200.00000	-0.0012	
401	200.50000	-0.0018	
402	201.00000	-0.0067	
403	201.50000	-0.0079	
404	202.00000	-0.0079	
405	202.50000	-0.0089	
406	203.00000	-0.0076	
407	203.50000	-0.0082	
408	204.00000	-0.0095	
409	204.50000	-0.0150	
410	205.00000	-0.0168	
411	205.50000	-0.0153	
412	206.00000	-0.0143	
413	206.50000	-0.0137	
414	207.00000	-0.0122	
415	207.50000	-0.0140	
416	208.00000	-0.0110	
417	208.50000	-0.0104	
418	209.00000	-0.0089	
419	209.50000	-0.0021	
420	210.00000	-0.0009	
421	210.50000	-0.0009	
422	211.00000	-0.0015	
423	211.50000	-0.0015	
424	212.00000	-0.0006	
425	212.50000	 0.0018	
426	213.00000	 0.0085	
427	213.50000	 0.0089	
428	214.00000	 0.0073	
429	214.50000	 0.0055	
430	215.00000	 0.0018	
431	215.50000	 0.0055	
432	216.00000	 0.0043	
433	216.50000	 0.0018	
434	217.00000	 0.0000	
435	217.50000	-0.0021	
436	218.00000	-0.0049	
437	218.50000	-0.0058	
438	219.00000	-0.0070	
439	219.50000	-0.0055	
440	220.00000	-0.0049	
441	220.50000	-0.0058	
442	221.00000	-0.0104	
443	221.50000	-0.0156	
444	222.00000	-0.0143	
445	222.50000	-0.0150	
446	223.00000	-0.0125	
447	223.50000	-0.0089	
448	224.00000	-0.0140	
449	224.50000	-0.0104	
450	225.00000	-0.0089	
451	225.50000	-0.0082	
452	226.00000	-0.0034	
453	226.50000	-0.0003	
454	227.00000	-0.0006	
455	227.50000	 0.0000	
456	228.00000	-0.0006	
457	228.50000	-0.0009	
458	229.00000	 0.0003	
459	229.50000	 0.0082	
460	230.00000	 0.0107	
461	230.50000	 0.0095	
462	231.00000	 0.0079	
463	231.50000	 0.0055	
464	232.00000	 0.0043	
465	232.50000	 0.0076	
466	233.00000	 0.0027	
467	233.50000	 0.0018	
468	234.00000	 0.0000	
469	234.50000	-0.0043	
470	235.00000	-0.0055	
471	235.50000	-0.0055	
472	236.00000	-0.0046	
473	236.50000	-0.0049	
474	237.00000	-0.0055	
475	237.50000	-0.0079	
476	238.00000	-0.0146	
477	238.50000	-0.0153	
478	239.00000	-0.0140	
479	239.50000	-0.0125	
480	240.00000	-0.0082	
481	240.50000	-0.0122	
482	241.00000	-0.0125	
483	241.50000	-0.0085	
484	242.00000	-0.0082	
485	242.50000	-0.0058	
486	243.00000	-0.0015	
487	243.50000	-0.0006	
488	244.00000	 0.0000	
489	244.50000	 0.0000	
490	245.00000	-0.0009	
491	245.50000	 0.0015	
492	246.00000	 0.0046	
493	246.50000	 0.0104	
494	247.00000	 0.0089	
495	247.50000	 0.0079	
496	248.00000	 0.0064	
497	248.50000	 0.0027	
498	249.00000	 0.0073	
499	249.50000	 0.0034	
500	250.00000	 0.0015	
501	250.50000	 0.0009	
502	251.00000	-0.0018	
503	251.50000	-0.0040	
504	252.00000	-0.0046	
505	252.50000	-0.0052	
506	253.00000	-0.0055	
507	253.50000	-0.0064	
508	254.00000	-0.0070	
509	254.50000	-0.0150	
510	255.00000	-0.0186	
511	255.50000	-0.0168	
512	256.00000	-0.0162	
513	256.50000	-0.0146	
514	257.00000	-0.0162	
515	257.50000	-0.0238	
516	258.00000	-0.0269	
517	258.50000	-0.0333	
518	259.00000	-0.0348	
519	259.50000	-0.0357	
520	260.00000	-0.0476	
521	260.50000	-0.0534	
522	261.00000	-0.0610	
523	261.50000	-0.0751	
524	262.00000	-0.0873	
525	262.50000	-0.0937	
526	263.00000	-0.0858	
527	263.50000	-0.0806	
528	264.00000	-0.0742	
529	264.50000	-0.0726	
530	265.00000	-0.0613	
531	265.50000	-0.0436	
532	266.00000	-0.0363	
533	266.50000	-0.0348	
534	267.00000	-0.0528	
535	267.50000	-0.0607	
536	268.00000	-0.0818	
537	268.50000	-0.0772	
538	269.00000	-0.0989	
539	269.50000	-0.1251	
540	270.00000	-0.1468	
541	270.50000	-0.1215	
542	271.00000	-0.0574	
543	271.50000	-0.0388	
544	272.00000	-0.0220	
545	272.50000	-0.0079	
546	273.00000	 0.0226	
547	273.50000	 0.0363	
548	274.00000	 0.0449	
549	274.50000	 0.0674	
550	275.00000	 0.0717	
551	275.50000	 0.0693	
552	276.00000	 0.0705	
553	276.50000	 0.0711	
554	277.00000	 0.0684	
555	277.50000	 0.0665	
556	278.00000	 0.0647	
557	278.50000	 0.0616	
558	279.00000	 0.0616	
559	279.50000	 0.0671	
560	280.00000	 0.0668	
561	280.50000	 0.0641	
562	281.00000	 0.0595	
563	281.50000	 0.0543	
564	282.00000	 0.0513	
565	282.50000	 0.0510	
566	283.00000	 0.0443	
567	283.50000	 0.0418	
568	284.00000	 0.0372	
569	284.50000	 0.0311	
570	285.00000	 0.0281	
571	285.50000	 0.0253	
572	286.00000	 0.0235	
573	286.50000	 0.0217	
574	287.00000	 0.0201	
575	287.50000	 0.0159	
576	288.00000	 0.0067	
577	288.50000	 0.0070	
578	289.00000	 0.0082	
579	289.50000	 0.0085	
580	290.00000	 0.0122	
581	290.50000	 0.0067	
582	291.00000	 0.0061	
583	291.50000	 0.0098	
584	292.00000	 0.0098	
585	292.50000	 0.0122	
586	293.00000	 0.0159	
587	293.50000	 0.0162	
588	294.00000	 0.0153	
589	294.50000	 0.0156	
590	295.00000	 0.0131	
591	295.50000	 0.0140	
592	296.00000	 0.0186	
593	296.50000	 0.0250	
594	297.00000	 0.0241	
595	297.50000	 0.0259	
596	298.00000	 0.0241	
597	298.50000	 0.0192	
598	299.00000	 0.0281	
599	299.50000	 0.0296	
600	300.00000	 0.0439	
601	300.50000	 0.0699	
602	301.00000	 0.1016	
603	301.50000	 0.1456	
604	302.00000	 0.2097	
605	302.50000	 0.2902	
606	303.00000	 0.3979	
607	303.50000	 0.5344	
608	304.00000	 0.6784	
609	304.50000	 0.8340	
610	305.00000	 1.0300	
611	305.50000	 1.2415	
612	306.00000	 1.4297	
613	306.50000	 1.5793	
614	307.00000	 1.6776	
615	307.50000	 1.6852	
616	308.00000	 1.6428	
617	308.50000	 1.5488	
618	309.00000	 1.3156	
619	309.50000	 0.9732	
620	310.00000	 0.4852	
621	310.50000	-0.1672	
622	311.00000	-0.8453	
623	311.50000	-1.3568	
624	312.00000	-1.7078	
625	312.50000	-1.8515	
626	313.00000	-1.7810	
627	313.50000	-1.6031	
628	314.00000	-1.3455	
629	314.50000	-1.0620	
630	315.00000	-0.7587	
631	315.50000	-0.5093	
632	316.00000	-0.2985	
633	316.50000	-0.1776	
634	317.00000	-0.0659	
635	317.50000	 0.0009	
636	318.00000	 0.0574	
637	318.50000	 0.1089	
638	319.00000	 0.1630	
639	319.50000	 0.2069	
640	320.00000	 0.2438	
641	320.50000	 0.2707	
642	321.00000	 0.2951	
643	321.50000	 0.3125	
644	322.00000	 0.3342	
645	322.50000	 0.3522	
646	323.00000	 0.3674	
647	323.50000	 0.3851	
648	324.00000	 0.3925	
649	324.50000	 0.4086	
650	325.00000	 0.4205	
651	325.50000	 0.4321	
652	326.00000	 0.4446	
653	326.50000	 0.4553	
654	327.00000	 0.4608	
655	327.50000	 0.4645	
656	328.00000	 0.4666	
657	328.50000	 0.4675	
658	329.00000	 0.4669	
659	329.50000	 0.4712	
660	330.00000	 0.4697	
661	330.50000	 0.4620	
662	331.00000	 0.4526	
663	331.50000	 0.4385	
664	332.00000	 0.4254	
665	332.50000	 0.4141	
666	333.00000	 0.3937	
667	333.50000	 0.3763	
668	334.00000	 0.3555	
669	334.50000	 0.3305	
670	335.00000	 0.3091	
671	335.50000	 0.2881	
672	336.00000	 0.2658	
673	336.50000	 0.2441	
674	337.00000	 0.2203	
675	337.50000	 0.1962	
676	338.00000	 0.1660	
677	338.50000	 0.1431	
678	339.00000	 0.1227	
679	339.50000	 0.1038	
680	340.00000	 0.0870	
681	340.50000	 0.0653	
682	341.00000	 0.0458	
683	341.50000	 0.0311	
684	342.00000	 0.0150	
685	342.50000	 0.0018	
686	343.00000	-0.0085	
687	343.50000	-0.0235	
688	344.00000	-0.0351	
689	344.50000	-0.0482	
690	345.00000	-0.0589	
691	345.50000	-0.0684	
692	346.00000	-0.0745	
693	346.50000	-0.0781	
694	347.00000	-0.0873	
695	347.50000	-0.0949	
696	348.00000	-0.1035	
697	348.50000	-0.1144	
698	349.00000	-0.1154	
699	349.50000	-0.1236	
700	350.00000	-0.1312	
701	350.50000	-0.1349	
702	351.00000	-0.1416	
703	351.50000	-0.1480	
704	352.00000	-0.1520	
705	352.50000	-0.1535	
706	353.00000	-0.1562	
707	353.50000	-0.1581	
708	354.00000	-0.1617	
709	354.50000	-0.1678	
710	355.00000	-0.1724	
711	355.50000	-0.1740	
712	356.00000	-0.1733	
713	356.50000	-0.1709	
714	357.00000	-0.1709	
715	357.50000	-0.1743	
716	358.00000	-0.1712	
717	358.50000	-0.1700	
718	359.00000	-0.1694	
719	359.50000	-0.1642	
720	360.00000	-0.1627	
721	360.50000	-0.1624	
722	361.00000	-0.1617	
723	361.50000	-0.1614	
724	362.00000	-0.1611	
725	362.50000	-0.1578	
726	363.00000	-0.1505	
727	363.50000	-0.1501	
728	364.00000	-0.1511	
729	364.50000	-0.1523	
730	365.00000	-0.1553	
731	365.50000	-0.1529	
732	366.00000	-0.1514	
733	366.50000	-0.1547	
734	367.00000	-0.1544	
735	367.50000	-0.1566	
736	368.00000	-0.1584	
737	368.50000	-0.1584	
738	369.00000	-0.1584	
739	369.50000	-0.1556	
740	370.00000	-0.1566	
741	370.50000	-0.1562	
742	371.00000	-0.1584	
743	371.50000	-0.1636	
744	372.00000	-0.1620	
745	372.50000	-0.1611	
746	373.00000	-0.1587	
747	373.50000	-0.1538	
748	374.00000	-0.1587	
749	374.50000	-0.1562	
750	375.00000	-0.1520	
751	375.50000	-0.1508	
752	376.00000	-0.1459	
753	376.50000	-0.1416	
754	377.00000	-0.1413	
755	377.50000	-0.1395	
756	378.00000	-0.1398	
757	378.50000	-0.1373	
758	379.00000	-0.1370	
759	379.50000	-0.1294	
760	380.00000	-0.1254	
761	380.50000	-0.1254	
762	381.00000	-0.1260	
763	381.50000	-0.1276	
764	382.00000	-0.1288	
765	382.50000	-0.1242	
766	383.00000	-0.1266	
767	383.50000	-0.1279	
768	384.00000	-0.1276	
769	384.50000	-0.1318	
770	385.00000	-0.1309	
771	385.50000	-0.1303	
772	386.00000	-0.1297	
773	386.50000	-0.1282	
774	387.00000	-0.1273	
775	387.50000	-0.1288	
776	388.00000	-0.1337	
777	388.50000	-0.1331	
778	389.00000	-0.1309	
779	389.50000	-0.1279	
780	390.00000	-0.1248	
781	390.50000	-0.1251	
782	391.00000	-0.1254	
783	391.50000	-0.1202	
784	392.00000	-0.1193	
785	392.50000	-0.1163	
786	393.00000	-0.1096	
787	393.50000	-0.1077	
788	394.00000	-0.1071	
789	394.50000	-0.1062	
790	395.00000	-0.1053	
791	395.50000	-0.1031	
792	396.00000	-0.0983	
793	396.50000	-0.0906	
794	397.00000	-0.0903	
795	397.50000	-0.0900	
796	398.00000	-0.0903	
797	398.50000	-0.0934	
798	399.00000	-0.0879	
799	399.50000	-0.0897	
800	400.00000	-0.0909	
801	400.50000	-0.0900	
802	401.00000	-0.0931	
803	401.50000	-0.0934	
804	402.00000	-0.0925	
805	402.50000	-0.0909	
806	403.00000	-0.0906	
807	403.50000	-0.0873	
808	404.00000	-0.0876	
809	404.50000	-0.0931	
810	405.00000	-0.0955	
811	405.50000	-0.0925	
812	406.00000	-0.0909	
813	406.50000	-0.0867	
814	407.00000	-0.0845	
815	407.50000	-0.0867	
816	408.00000	-0.0812	
817	408.50000	-0.0784	
818	409.00000	-0.0769	
819	409.50000	-0.0708	
820	410.00000	-0.0671	
821	410.50000	-0.0662	
822	411.00000	-0.0647	
823	411.50000	-0.0623	
824	412.00000	-0.0610	
825	412.50000	-0.0577	
826	413.00000	-0.0500	
827	413.50000	-0.0482	
828	414.00000	-0.0504	
829	414.50000	-0.0510	
830	415.00000	-0.0543	
831	415.50000	-0.0516	
832	416.00000	-0.0494	
833	416.50000	-0.0519	
834	417.00000	-0.0525	
835	417.50000	-0.0528	
836	418.00000	-0.0568	
837	418.50000	-0.0552	
838	419.00000	-0.0534	
839	419.50000	-0.0537	
840	420.00000	-0.0528	
841	420.50000	-0.0525	
842	421.00000	-0.0549	
843	421.50000	-0.0595	
844	422.00000	-0.0589	
845	422.50000	-0.0565	
846	423.00000	-0.0537	
847	423.50000	-0.0491	
848	424.00000	-0.0543	
849	424.50000	-0.0507	
850	425.00000	-0.0473	
851	425.50000	-0.0461	
852	426.00000	-0.0418	
853	426.50000	-0.0378	
854	427.00000	-0.0369	
855	427.50000	-0.0357	
856	428.00000	-0.0351	
857	428.50000	-0.0336	
858	429.00000	-0.0345	
859	429.50000	-0.0269	
860	430.00000	-0.0223	
861	430.50000	-0.0232	
862	431.00000	-0.0235	
863	431.50000	-0.0250	
864	432.00000	-0.0266	
865	432.50000	-0.0229	
866	433.00000	-0.0256	
867	433.50000	-0.0269	
868	434.00000	-0.0281	
869	434.50000	-0.0317	
870	435.00000	-0.0317	
871	435.50000	-0.0317	
872	436.00000	-0.0308	
873	436.50000	-0.0314	
874	437.00000	-0.0302	
875	437.50000	-0.0314	
876	438.00000	-0.0381	
877	438.50000	-0.0381	
878	439.00000	-0.0381	
879	439.50000	-0.0345	
880	440.00000	-0.0314	
881	440.50000	-0.0323	
882	441.00000	-0.0339	
883	441.50000	-0.0281	
884	442.00000	-0.0278	
885	442.50000	-0.0250	
886	443.00000	-0.0208	
887	443.50000	-0.0189	
888	444.00000	-0.0186	
889	444.50000	-0.0189	
890	445.00000	-0.0180	
891	445.50000	-0.0174	
892	446.00000	-0.0143	
893	446.50000	-0.0061	
894	447.00000	-0.0070	
895	447.50000	-0.0085	
896	448.00000	-0.0098	
897	448.50000	-0.0134	
898	449.00000	-0.0092	
899	449.50000	-0.0104	
900	450.00000	-0.0122	
901	450.50000	-0.0134	
902	451.00000	-0.0150	
903	451.50000	-0.0186	
904	452.00000	-0.0177	
905	452.50000	-0.0171	
906	453.00000	-0.0168	
907	453.50000	-0.0177	
908	454.00000	-0.0171	
909	454.50000	-0.0220	
910	455.00000	-0.0262	
911	455.50000	-0.0250	
912	456.00000	-0.0229	
913	456.50000	-0.0217	
914	457.00000	-0.0192	
915	457.50000	-0.0229	
916	458.00000	-0.0183	
917	458.50000	-0.0174	
918	459.00000	-0.0156	
919	459.50000	-0.0107	
920	460.00000	-0.0089	
921	460.50000	-0.0082	
922	461.00000	-0.0082	
923	461.50000	-0.0089	
924	462.00000	-0.0082	
925	462.50000	-0.0058	
926	463.00000	 0.0015	
927	463.50000	 0.0018	
928	464.00000	 0.0018	
929	464.50000	 0.0003	
930	465.00000	-0.0027	
931	465.50000	-0.0009	
932	466.00000	 0.0000	
933	466.50000	-0.0027	
934	467.00000	-0.0043	
935	467.50000	-0.0064	
936	468.00000	-0.0092	
937	468.50000	-0.0101	
938	469.00000	-0.0092	
939	469.50000	-0.0095	
940	470.00000	-0.0092	
941	470.50000	-0.0089	
942	471.00000	-0.0113	
943	471.50000	-0.0183	
944	472.00000	-0.0177	
945	472.50000	-0.0171	
946	473.00000	-0.0156	
947	473.50000	-0.0107	
948	474.00000	-0.0156	
949	474.50000	-0.0128	
950	475.00000	-0.0098	
951	475.50000	-0.0098	
952	476.00000	-0.0052	
953	476.50000	-0.0034	
954	477.00000	-0.0034	
955	477.50000	-0.0021	
956	478.00000	-0.0018	
957	478.50000	-0.0021	
958	479.00000	-0.0009	
959	479.50000	 0.0043	
960	480.00000	 0.0073	
961	480.50000	 0.0067	
962	481.00000	 0.0064	
963	481.50000	 0.0046	
964	482.00000	 0.0027	
965	482.50000	 0.0058	
966	483.00000	 0.0018	
967	483.50000	 0.0009	
968	484.00000	 0.0009	
969	484.50000	-0.0040	
970	485.00000	-0.0049	
971	485.50000	-0.0058	
972	486.00000	-0.0046	
973	486.50000	-0.0055	
974	487.00000	-0.0058	
975	487.50000	-0.0076	
976	488.00000	-0.0137	
977	488.50000	-0.0150	
978	489.00000	-0.0143	
979	489.50000	-0.0137	
980	490.00000	-0.0092	
981	490.50000	-0.0110	
982	491.00000	-0.0125	
983	491.50000	-0.0089	
984	492.00000	-0.0079	
985	492.50000	-0.0058	
986	493.00000	-0.0006	
987	493.50000	 0.0000	
988	494.00000	-0.0009	
989	494.50000	-0.0009	
990	495.00000	 0.0000	
991	495.50000	-0.0003	
992	496.00000	 0.0027	
993	496.50000	 0.0089	
994	497.00000	 0.0082	
995	497.50000	 0.0082	
996	498.00000	 0.0058	
997	498.50000	 0.0021	
998	499.00000	 0.0058	
999	499.50000	 0.0043	
1000	500.00000	 0.0015	
1001	500.50000	 0.0018	
1002	501.00000	-0.0015	
1003	501.50000	-0.0043	
1004	502.00000	-0.0055	
1005	502.50000	-0.0049	
1006	503.00000	-0.0046	
1007	503.50000	-0.0052	
1008	504.00000	-0.0061	
1009	504.50000	-0.0101	
1010	505.00000	-0.0140	
1011	505.50000	-0.0137	
1012	506.00000	-0.0134	
1013	506.50000	-0.0101	
1014	507.00000	-0.0089	
1015	507.50000	-0.0131	
1016	508.00000	-0.0092	
1017	508.50000	-0.0089	
1018	509.00000	-0.0067	
1019	509.50000	-0.0018	
1020	510.00000	-0.0009	
1021	510.50000	 0.0003	
1022	511.00000	 0.0000	
1023	511.50000	-0.0003	
1024	512.00000	-0.0003	
1025	512.50000	 0.0015	
1026	513.00000	 0.0082	
1027	513.50000	 0.0089	
1028	514.00000	 0.0082	
1029	514.50000	 0.0079	
1030	515.00000	 0.0046	
1031	515.50000	 0.0055	
1032	516.00000	 0.0058	
1033	516.50000	 0.0027	
1034	517.00000	 0.0015	
1035	517.50000	 0.0000	
1036	518.00000	-0.0043	
1037	518.50000	-0.0043	
1038	519.00000	-0.0046	
1039	519.50000	-0.0046	
1040	520.00000	-0.0046	
1041	520.50000	-0.0049	
1042	521.00000	-0.0076	
1043	521.50000	-0.0143	
1044	522.00000	-0.0131	
1045	522.50000	-0.0125	
1046	523.00000	-0.0110	
1047	523.50000	-0.0067	
1048	524.00000	-0.0113	
1049	524.50000	-0.0098	
1050	525.00000	-0.0076	
1051	525.50000	-0.0067	
1052	526.00000	-0.0037	
1053	526.50000	-0.0003	
1054	527.00000	-0.0009	
1055	527.50000	-0.0012	
1056	528.00000	-0.0021	
1057	528.50000	-0.0021	
1058	529.00000	-0.0015	
1059	529.50000	 0.0003	
1060	530.00000	 0.0061	
1061	530.50000	 0.0018	
1062	531.00000	-0.0037	
1063	531.50000	-0.0122	
1064	532.00000	-0.0204	
1065	532.50000	-0.0211	
1066	533.00000	-0.0311	
1067	533.50000	-0.0452	
1068	534.00000	-0.0519	
1069	534.50000	-0.0653	
1070	535.00000	-0.0806	
1071	535.50000	-0.0928	
1072	536.00000	-0.1010	
1073	536.50000	-0.1010	
1074	537.00000	-0.0952	
1075	537.50000	-0.0894	
1076	538.00000	-0.0931	
1077	538.50000	-0.0778	
1078	539.00000	-0.0623	
1079	539.50000	-0.0534	
1080	540.00000	-0.0473	
1081	540.50000	-0.0662	
1082	541.00000	-0.0723	
1083	541.50000	-0.0848	
1084	542.00000	-0.0793	
1085	542.50000	-0.1001	
1086	543.00000	-0.1208	
1087	543.50000	-0.1434	
1088	544.00000	-0.1138	
1089	544.50000	-0.0467	
1090	545.00000	-0.0232	
1091	545.50000	-0.0064	
1092	546.00000	 0.0089	
1093	546.50000	 0.0439	
1094	547.00000	 0.0528	
1095	547.50000	 0.0674	
1096	548.00000	 0.0836	
1097	548.50000	 0.0824	
1098	549.00000	 0.0830	
1099	549.50000	 0.0778	
1100	550.00000	 0.0726	
1101	550.50000	 0.0705	
1102	551.00000	 0.0662	
1103	551.50000	 0.0613	
1104	552.00000	 0.0586	
1105	552.50000	 0.0574	
1106	553.00000	 0.0543	
1107	553.50000	 0.0531	
1108	554.00000	 0.0504	
1109	554.50000	 0.0439	
1110	555.00000	 0.0363	
1111	555.50000	 0.0351	
1112	556.00000	 0.0342	
1113	556.50000	 0.0314	
1114	557.00000	 0.0327	
1115	557.50000	 0.0259	
1116	558.00000	 0.0266	
1117	558.50000	 0.0250	
1118	559.00000	 0.0238	
1119	559.50000	 0.0253	
1120	560.00000	 0.0256	
1121	560.50000	 0.0244	
1122	561.00000	 0.0226	
1123	561.50000	 0.0204	
1124	562.00000	 0.0208	
1125	562.50000	 0.0235	
1126	563.00000	 0.0299	
1127	563.50000	 0.0293	
1128	564.00000	 0.0278	
1129	564.50000	 0.0247	
1130	565.00000	 0.0217	
1131	565.50000	 0.0211	
1132	566.00000	 0.0229	
1133	566.50000	 0.0186	
1134	567.00000	 0.0171	
1135	567.50000	 0.0159	
1136	568.00000	 0.0101	
1137	568.50000	 0.0079	
1138	569.00000	 0.0076	
1139	569.50000	 0.0095	
1140	570.00000	 0.0107	
1141	570.50000	 0.0107	
1142	571.00000	 0.0089	
1143	571.50000	 0.0027	
1144	572.00000	 0.0027	
1145	572.50000	 0.0079	
1146	573.00000	 0.0143	
1147	573.50000	 0.0357	
1148	574.00000	 0.0577	
1149	574.50000	 0.0937	
1150	575.00000	 0.1453	
1151	575.50000	 0.2109	
1152	576.00000	 0.2945	
1153	576.50000	 0.4062	
1154	577.00000	 0.5450	
1155	577.50000	 0.6885	
1156	578.00000	 0.8511	
1157	578.50000	 1.0495	
1158	579.00000	 1.2610	
1159	579.50000	 1.4505	
1160	580.00000	 1.6010	
1161	580.50000	 1.6953	
1162	581.00000	 1.6998	
1163	581.50000	 1.6519	
1164	582.00000	 1.5512	
1165	582.50000	 1.3144	
1166	583.00000	 0.9607	
1167	583.50000	 0.4657	
1168	584.00000	-0.1901	
1169	584.50000	-0.8652	
1170	585.00000	-1.3730	
1171	585.50000	-1.7181	
1172	586.00000	-1.8552	
1173	586.50000	-1.7874	
1174	587.00000	-1.6058	
1175	587.50000	-1.3492	
1176	588.00000	-1.0693	
1177	588.50000	-0.7663	
1178	589.00000	-0.5191	
1179	589.50000	-0.3122	
1180	590.00000	-0.1859	
1181	590.50000	-0.0748	
1182	591.00000	-0.0085	
1183	591.50000	 0.0549	
1184	592.00000	 0.1089	
1185	592.50000	 0.1636	
1186	593.00000	 0.2133	
1187	593.50000	 0.2505	
1188	594.00000	 0.2759	
1189	594.50000	 0.3040	
1190	595.00000	 0.3281	
1191	595.50000	 0.3479	
1192	596.00000	 0.3680	
1193	596.50000	 0.3915	
1194	597.00000	 0.4047	
1195	597.50000	 0.4156	
1196	598.00000	 0.4263	
1197	598.50000	 0.4321	
1198	599.00000	 0.4456	
1199	599.50000	 0.4535	
1200	600.00000	 0.4575	
1201	600.50000	 0.4620	
1202	601.00000	 0.4617	
1203	601.50000	 0.4630	
1204	602.00000	 0.4626	
1205	602.50000	 0.4623	
1206	603.00000	 0.4593	
1207	603.50000	 0.4550	
1208	604.00000	 0.4468	
1209	604.50000	 0.4327	
1210	605.00000	 0.4184	
1211	605.50000	 0.4068	
1212	606.00000	 0.3934	
1213	606.50000	 0.3793	
1214	607.00000	 0.3644	
1215	607.50000	 0.3412	
1216	608.00000	 0.3256	
1217	608.50000	 0.3055	
1218	609.00000	 0.2853	
1219	609.50000	 0.2670	
1220	610.00000	 0.2460	
1221	610.50000	 0.2237	
1222	611.00000	 0.2014	
1223	611.50000	 0.1791	
1224	612.00000	 0.1575	
1225	612.50000	 0.1370	
1226	613.00000	 0.1230	
1227	613.50000	 0.1047	
1228	614.00000	 0.0842	
1229	614.50000	 0.0647	
1230	615.00000	 0.0427	
1231	615.50000	 0.0256	
1232	616.00000	 0.0125	
1233	616.50000	-0.0064	
1234	617.00000	-0.0204	
1235	617.50000	-0.0360	
1236	618.00000	-0.0513	
1237	618.50000	-0.0641	
1238	619.00000	-0.0745	
1239	619.50000	-0.0836	
1240	620.00000	-0.0931	
1241	620.50000	-0.1016	
1242	621.00000	-0.1111	
1243	621.50000	-0.1248	
1244	622.00000	-0.1312	
1245	622.50000	-0.1358	
1246	623.00000	-0.1392	
1247	623.50000	-0.1392	
1248	624.00000	-0.1483	
1249	624.50000	-0.1498	
1250	625.00000	-0.1520	
1251	625.50000	-0.1535	
1252	626.00000	-0.1526	
1253	626.50000	-0.1520	
1254	627.00000	-0.1529	
1255	627.50000	-0.1547	
1256	628.00000	-0.1572	
1257	628.50000	-0.1581	
1258	629.00000	-0.1590	
1259	629.50000	-0.1547	
1260	630.00000	-0.1501	
1261	630.50000	-0.1520	
1262	631.00000	-0.1526	
1263	631.50000	-0.1556	
1264	632.00000	-0.1581	
1265	632.50000	-0.1550	
1266	633.00000	-0.1584	
1267	633.50000	-0.1584	
1268	634.00000	-0.1599	
1269	634.50000	-0.1642	
1270	635.00000	-0.1654	
1271	635.50000	-0.1654	
1272	636.00000	-0.1648	
1273	636.50000	-0.1642	
1274	637.00000	-0.1639	
1275	637.50000	-0.1651	
1276	638.00000	-0.1712	
1277	638.50000	-0.1727	
1278	639.00000	-0.1703	
1279	639.50000	-0.1685	
1280	640.00000	-0.1657	
1281	640.50000	-0.1654	
1282	641.00000	-0.1666	
1283	641.50000	-0.1624	
1284	642.00000	-0.1614	
1285	642.50000	-0.1578	
1286	643.00000	-0.1526	
1287	643.50000	-0.1508	
1288	644.00000	-0.1498	
1289	644.50000	-0.1505	
1290	645.00000	-0.1492	
1291	645.50000	-0.1480	
1292	646.00000	-0.1443	
1293	646.50000	-0.1367	
1294	647.00000	-0.1355	
1295	647.50000	-0.1361	
1296	648.00000	-0.1370	
1297	648.50000	-0.1410	
1298	649.00000	-0.1376	
1299	649.50000	-0.1364	
1300	650.00000	-0.1382	
1301	650.50000	-0.1382	
1302	651.00000	-0.1401	
1303	651.50000	-0.1437	
1304	652.00000	-0.1425	
1305	652.50000	-0.1416	
1306	653.00000	-0.1404	
1307	653.50000	-0.1398	
1308	654.00000	-0.1385	
1309	654.50000	-0.1425	
1310	655.00000	-0.1471	
1311	655.50000	-0.1453	
1312	656.00000	-0.1422	
1313	656.50000	-0.1407	
1314	657.00000	-0.1370	
1315	657.50000	-0.1404	
1316	658.00000	-0.1364	
1317	658.50000	-0.1334	
1318	659.00000	-0.1324	
1319	659.50000	-0.1266	
1320	660.00000	-0.1233	
1321	660.50000	-0.1227	
1322	661.00000	-0.1212	
1323	661.50000	-0.1205	
1324	662.00000	-0.1187	
1325	662.50000	-0.1163	
1326	663.00000	-0.1074	
1327	663.50000	-0.1065	
1328	664.00000	-0.1059	
1329	664.50000	-0.1059	
1330	665.00000	-0.1074	
1331	665.50000	-0.1065	
1332	666.00000	-0.1044	
1333	666.50000	-0.1065	
1334	667.00000	-0.1053	
1335	667.50000	-0.1062	
1336	668.00000	-0.1089	
1337	668.50000	-0.1102	
1338	669.00000	-0.1074	
1339	669.50000	-0.1077	
1340	670.00000	-0.1056	
1341	670.50000	-0.1041	
1342	671.00000	-0.1053	
1343	671.50000	-0.1114	
1344	672.00000	-0.1102	
1345	672.50000	-0.1077	
1346	673.00000	-0.1059	
1347	673.50000	-0.1001	
1348	674.00000	-0.1022	
1349	674.50000	-0.1013	
1350	675.00000	-0.0961	
1351	675.50000	-0.0934	
1352	676.00000	-0.0894	
1353	676.50000	-0.0845	
1354	677.00000	-0.0833	
1355	677.50000	-0.0824	
1356	678.00000	-0.0812	
1357	678.50000	-0.0800	
1358	679.00000	-0.0778	
1359	679.50000	-0.0732	
1360	680.00000	-0.0656	
1361	680.50000	-0.0662	
1362	681.00000	-0.0656	
1363	681.50000	-0.0662	
1364	682.00000	-0.0687	
1365	682.50000	-0.0629	
1366	683.00000	-0.0644	
1367	683.50000	-0.0656	
1368	684.00000	-0.0656	
1369	684.50000	-0.0687	
1370	685.00000	-0.0696	
1371	685.50000	-0.0687	
1372	686.00000	-0.0662	
1373	686.50000	-0.0662	
1374	687.00000	-0.0656	
1375	687.50000	-0.0638	
1376	688.00000	-0.0702	
1377	688.50000	-0.0705	
1378	689.00000	-0.0690	
1379	689.50000	-0.0671	
1380	690.00000	-0.0647	
1381	690.50000	-0.0623	
1382	691.00000	-0.0629	
1383	691.50000	-0.0598	
1384	692.00000	-0.0574	
1385	692.50000	-0.0552	
1386	693.00000	-0.0491	
1387	693.50000	-0.0470	
1388	694.00000	-0.0461	
1389	694.50000	-0.0461	
1390	695.00000	-0.0443	
1391	695.50000	-0.0436	
1392	696.00000	-0.0400	
1393	696.50000	-0.0317	
1394	697.00000	-0.0314	
1395	697.50000	-0.0314	
1396	698.00000	-0.0327	
1397	698.50000	-0.0369	
1398	699.00000	-0.0333	
1399	699.50000	-0.0327	
1400	700.00000	-0.0363	
1401	700.50000	-0.0351	
1402	701.00000	-0.0388	
1403	701.50000	-0.0409	
1404	702.00000	-0.0403	
1405	702.50000	-0.0394	
1406	703.00000	-0.0391	
1407	703.50000	-0.0388	
1408	704.00000	-0.0394	
1409	704.50000	-0.0421	
1410	705.00000	-0.0470	
1411	705.50000	-0.0452	
1412	706.00000	-0.0449	
1413	706.50000	-0.0418	
1414	707.00000	-0.0381	
1415	707.50000	-0.0424	
1416	708.00000	-0.0381	
1417	708.50000	-0.0363	
1418	709.00000	-0.0348	
1419	709.50000	-0.0293	
1420	710.00000	-0.0272	
1421	710.50000	-0.0256	
1422	711.00000	-0.0256	
1423	711.50000	-0.0250	
1424	712.00000	-0.0235	
1425	712.50000	-0.0223	
1426	713.00000	-0.0134	
1427	713.50000	-0.0122	
1428	714.00000	-0.0122	
1429	714.50000	-0.0131	
1430	715.00000	-0.0146	
1431	715.50000	-0.0162	
1432	716.00000	-0.0131	
1433	716.50000	-0.0168	
1434	717.00000	-0.0171	
1435	717.50000	-0.0183	
1436	718.00000	-0.0214	
1437	718.50000	-0.0217	
1438	719.00000	-0.0217	
1439	719.50000	-0.0217	
1440	720.00000	-0.0211	
1441	720.50000	-0.0214	
1442	721.00000	-0.0226	
1443	721.50000	-0.0305	
1444	722.00000	-0.0293	
1445	722.50000	-0.0293	
1446	723.00000	-0.0269	
1447	723.50000	-0.0226	
1448	724.00000	-0.0238	
1449	724.50000	-0.0256	
1450	725.00000	-0.0208	
1451	725.50000	-0.0198	
1452	726.00000	-0.0183	
1453	726.50000	-0.0134	
1454	727.00000	-0.0119	
1455	727.50000	-0.0113	
1456	728.00000	-0.0113	
1457	728.50000	-0.0110	
1458	729.00000	-0.0104	
1459	729.50000	-0.0052	
1460	730.00000	 0.0000	
1461	730.50000	-0.0015	
1462	731.00000	-0.0003	
1463	731.50000	-0.0021	
1464	732.00000	-0.0061	
1465	732.50000	-0.0009	
1466	733.00000	-0.0055	
1467	733.50000	-0.0052	
1468	734.00000	-0.0064	
1469	734.50000	-0.0095	
1470	735.00000	-0.0122	
1471	735.50000	-0.0131	
1472	736.00000	-0.0113	
1473	736.50000	-0.0104	
1474	737.00000	-0.0113	
1475	737.50000	-0.0122	
1476	738.00000	-0.0192	
1477	738.50000	-0.0204	
1478	739.00000	-0.0198	
1479	739.50000	-0.0186	
1480	740.00000	-0.0165	
1481	740.50000	-0.0162	
1482	741.00000	-0.0168	
1483	741.50000	-0.0131	
1484	742.00000	-0.0131	
1485	742.50000	-0.0101	
1486	743.00000	-0.0061	
1487	743.50000	-0.0040	
1488	744.00000	-0.0040	
1489	744.50000	-0.0049	
1490	745.00000	-0.0040	
1491	745.50000	-0.0037	
1492	746.00000	 0.0000	
1493	746.50000	 0.0070	
1494	747.00000	 0.0064	
1495	747.50000	 0.0058	
1496	748.00000	 0.0046	
1497	748.50000	 0.0003	
1498	749.00000	 0.0027	
1499	749.50000	 0.0027	
1500	750.00000	 0.0009	
1501	750.50000	-0.0009	
1502	751.00000	-0.0034	
1503	751.50000	-0.0061	
1504	752.00000	-0.0067	
1505	752.50000	-0.0061	
1506	753.00000	-0.0061	
1507	753.50000	-0.0061	
1508	754.00000	-0.0070	
1509	754.50000	-0.0104	
1510	755.00000	-0.0156	
1511	755.50000	-0.0153	
1512	756.00000	-0.0143	
1513	756.50000	-0.0134	
1514	757.00000	-0.0095	
1515	757.50000	-0.0143	
1516	758.00000	-0.0104	
1517	758.50000	-0.0098	
1518	759.00000	-0.0070	
1519	759.50000	-0.0037	
1520	760.00000	-0.0018	
1521	760.50000	-0.0009	
1522	761.00000	-0.0003	
1523	761.50000	-0.0003	
1524	762.00000	-0.0009	
1525	762.50000	 0.0000	
1526	763.00000	 0.0070	
1527	763.50000	 0.0095	
1528	764.00000	 0.0085	
1529	764.50000	 0.0067	
1530	765.00000	 0.0055	
1531	765.50000	 0.0034	
1532	766.00000	 0.0061	
1533	766.50000	 0.0027	
1534	767.00000	 0.0015	
1535	767.50000	 0.0003	
1536	768.00000	-0.0043	
1537	768.50000	-0.0055	
1538	769.00000	-0.0055	
1539	769.50000	-0.0055	
1540	770.00000	-0.0055	
1541	770.50000	-0.0061	
1542	771.00000	-0.0070	
1543	771.50000	-0.0150	
1544	772.00000	-0.0146	
1545	772.50000	-0.0150	
1546	773.00000	-0.0137	
1547	773.50000	-0.0098	
1548	774.00000	-0.0122	
1549	774.50000	-0.0128	
1550	775.00000	-0.0079	
1551	775.50000	-0.0085	
1552	776.00000	-0.0061	
1553	776.50000	-0.0015	
1554	777.00000	-0.0003	
1555	777.50000	-0.0009	
1556	778.00000	-0.0009	
1557	778.50000	-0.0009	
1558	779.00000	-0.0006	
1559	779.50000	 0.0040	
1560	780.00000	 0.0098	
1561	780.50000	 0.0089	
1562	781.00000	 0.0082	
1563	781.50000	 0.0058	
1564	782.00000	 0.0027	
1565	782.50000	 0.0070	
1566	783.00000	 0.0037	
1567	783.50000	 0.0021	
1568	784.00000	 0.0015	
1569	784.50000	-0.0021	
1570	785.00000	-0.0052	
1571	785.50000	-0.0052	
1572	786.00000	-0.0049	
1573	786.50000	-0.0046	
1574	787.00000	-0.0043	
1575	787.50000	-0.0055	
1576	788.00000	-0.0119	
1577	788.50000	-0.0143	
1578	789.00000	-0.0131	
1579	789.50000	-0.0131	
1580	790.00000	-0.0101	
1581	790.50000	-0.0098	
1582	791.00000	-0.0119	
1583	791.50000	-0.0098	
1584	792.00000	-0.0079	
1585	792.50000	-0.0064	
1586	793.00000	-0.0009	
1587	793.50000	 0.0000	
1588	794.00000	-0.0003	
1589	794.50000	-0.0003	
1590	795.00000	 0.0000	
1591	795.50000	 0.0003	
1592	796.00000	 0.0034	
1593	796.50000	 0.0110	
1594	797.00000	 0.0101	
1595	797.50000	 0.0095	
1596	798.00000	 0.0076	
1597	798.50000	 0.0037	
1598	799.00000	 0.0064	
1599	799.50000	 0.0067	
1600	800.00000	 0.0021	
1601	800.50000	 0.0012	
1602	801.00000	-0.0018	
1603	801.50000	-0.0070	
1604	802.00000	-0.0070	
1605	802.50000	-0.0076	
1606	803.00000	-0.0079	
1607	803.50000	-0.0082	
1608	804.00000	-0.0119	
1609	804.50000	-0.0204	
1610	805.00000	-0.0333	
1611	805.50000	-0.0388	
1612	806.00000	-0.0430	
1613	806.50000	-0.0467	
1614	807.00000	-0.0565	
1615	807.50000	-0.0662	
1616	808.00000	-0.0729	
1617	808.50000	-0.0848	
1618	809.00000	-0.0958	
1619	809.50000	-0.0995	
1620	810.00000	-0.0961	
1621	810.50000	-0.0900	
1622	811.00000	-0.0821	
1623	811.50000	-0.0793	
1624	812.00000	-0.0629	
1625	812.50000	-0.0482	
1626	813.00000	-0.0336	
1627	813.50000	-0.0284	
1628	814.00000	-0.0485	
1629	814.50000	-0.0543	
1630	815.00000	-0.0702	
1631	815.50000	-0.0684	
1632	816.00000	-0.0891	
1633	816.50000	-0.1181	
1634	817.00000	-0.1398	
1635	817.50000	-0.1089	
1636	818.00000	-0.0476	
1637	818.50000	-0.0275	
1638	819.00000	-0.0101	
1639	819.50000	 0.0052	
1640	820.00000	 0.0320	
1641	820.50000	 0.0415	
1642	821.00000	 0.0528	
1643	821.50000	 0.0632	
1644	822.00000	 0.0632	
1645	822.50000	 0.0613	
1646	823.00000	 0.0592	
1647	823.50000	 0.0610	
1648	824.00000	 0.0580	
1649	824.50000	 0.0549	
1650	825.00000	 0.0574	
1651	825.50000	 0.0555	
1652	826.00000	 0.0552	
1653	826.50000	 0.0580	
1654	827.00000	 0.0562	
1655	827.50000	 0.0522	
1656	828.00000	 0.0513	
1657	828.50000	 0.0494	
1658	829.00000	 0.0476	
1659	829.50000	 0.0488	
1660	830.00000	 0.0525	
1661	830.50000	 0.0482	
1662	831.00000	 0.0461	
1663	831.50000	 0.0415	
1664	832.00000	 0.0351	
1665	832.50000	 0.0375	
1666	833.00000	 0.0320	
1667	833.50000	 0.0284	
1668	834.00000	 0.0259	
1669	834.50000	 0.0204	
1670	835.00000	 0.0168	
1671	835.50000	 0.0168	
1672	836.00000	 0.0174	
1673	836.50000	 0.0165	
1674	837.00000	 0.0146	
1675	837.50000	 0.0131	
1676	838.00000	 0.0061	
1677	838.50000	 0.0027	
1678	839.00000	 0.0031	
1679	839.50000	 0.0043	
1680	840.00000	 0.0064	
1681	840.50000	 0.0058	
1682	841.00000	 0.0037	
1683	841.50000	 0.0067	
1684	842.00000	 0.0070	
1685	842.50000	 0.0070	
1686	843.00000	 0.0125	
1687	843.50000	 0.0146	
1688	844.00000	 0.0153	
1689	844.50000	 0.0171	
1690	845.00000	 0.0168	
1691	845.50000	 0.0183	
1692	846.00000	 0.0238	
1693	846.50000	 0.0372	
1694	847.00000	 0.0540	
1695	847.50000	 0.0818	
1696	848.00000	 0.1147	
1697	848.50000	 0.1593	
1698	849.00000	 0.2271	
1699	849.50000	 0.3107	
1700	850.00000	 0.4153	
1701	850.50000	 0.5533	
1702	851.00000	 0.6949	
1703	851.50000	 0.8554	
1704	852.00000	 1.0547	
1705	852.50000	 1.2637	
1706	853.00000	 1.4465	
1707	853.50000	 1.5900	
1708	854.00000	 1.6809	
1709	854.50000	 1.6803	
1710	855.00000	 1.6275	
1711	855.50000	 1.5277	
1712	856.00000	 1.2805	
1713	856.50000	 0.9296	
1714	857.00000	 0.4330	
1715	857.50000	-0.2350	
1716	858.00000	-0.8981	
1717	858.50000	-1.3983	
1718	859.00000	-1.7355	
1719	859.50000	-1.8582	
1720	860.00000	-1.7789	
1721	860.50000	-1.5918	
1722	861.00000	-1.3318	
1723	861.50000	-1.0419	
1724	862.00000	-0.7397	
1725	862.50000	-0.4929	
1726	863.00000	-0.2853	
1727	863.50000	-0.1599	
1728	864.00000	-0.0513	
1729	864.50000	 0.0140	
1730	865.00000	 0.0708	
1731	865.50000	 0.1224	
1732	866.00000	 0.1779	
1733	866.50000	 0.2200	
1734	867.00000	 0.2542	
1735	867.50000	 0.2789	
1736	868.00000	 0.3012	
1737	868.50000	 0.3244	
1738	869.00000	 0.3430	
1739	869.50000	 0.3616	
1740	870.00000	 0.3760	
1741	870.50000	 0.3897	
1742	871.00000	 0.4010	
1743	871.50000	 0.4056	
1744	872.00000	 0.4150	
1745	872.50000	 0.4260	
1746	873.00000	 0.4361	
1747	873.50000	 0.4456	
1748	874.00000	 0.4498	
1749	874.50000	 0.4520	
1750	875.00000	 0.4578	
1751	875.50000	 0.4593	
1752	876.00000	 0.4608	
1753	876.50000	 0.4623	
1754	877.00000	 0.4575	
1755	877.50000	 0.4514	
1756	878.00000	 0.4425	
1757	878.50000	 0.4321	
1758	879.00000	 0.4196	
1759	879.50000	 0.4089	
1760	880.00000	 0.3992	
1761	880.50000	 0.3806	
1762	881.00000	 0.3607	
1763	881.50000	 0.3394	
1764	882.00000	 0.3156	
1765	882.50000	 0.2979	
1766	883.00000	 0.2719	
1767	883.50000	 0.2475	
1768	884.00000	 0.2252	
1769	884.50000	 0.1984	
1770	885.00000	 0.1743	
1771	885.50000	 0.1520	
1772	886.00000	 0.1300	
1773	886.50000	 0.1096	
1774	887.00000	 0.0894	
1775	887.50000	 0.0699	
1776	888.00000	 0.0452	
1777	888.50000	 0.0238	
1778	889.00000	 0.0082	
1779	889.50000	-0.0061	
1780	890.00000	-0.0195	
1781	890.50000	-0.0327	
1782	891.00000	-0.0482	
1783	891.50000	-0.0565	
1784	892.00000	-0.0671	
1785	892.50000	-0.0763	
1786	893.00000	-0.0812	
1787	893.50000	-0.0885	
1788	894.00000	-0.0961	
1789	894.50000	-0.1031	
1790	895.00000	-0.1102	
1791	895.50000	-0.1166	
1792	896.00000	-0.1196	
1793	896.50000	-0.1172	
1794	897.00000	-0.1215	
1795	897.50000	-0.1273	
1796	898.00000	-0.1324	
1797	898.50000	-0.1382	
1798	899.00000	-0.1410	
1799	899.50000	-0.1428	
1800	900.00000	-0.1483	
1801	900.50000	-0.1508	
1802	901.00000	-0.1547	
1803	901.50000	-0.1599	
1804	902.00000	-0.1614	
1805	902.50000	-0.1624	
1806	903.00000	-0.1633	
1807	903.50000	-0.1648	
1808	904.00000	-0.1663	
1809	904.50000	-0.1685	
1810	905.00000	-0.1752	
1811	905.50000	-0.1758	
1812	906.00000	-0.1746	
1813	906.50000	-0.1727	
1814	907.00000	-0.1691	
1815	907.50000	-0.1740	
1816	908.00000	-0.1712	
1817	908.50000	-0.1700	
1818	909.00000	-0.1669	
1819	909.50000	-0.1630	
1820	910.00000	-0.1596	
1821	910.50000	-0.1596	
1822	911.00000	-0.1581	
1823	911.50000	-0.1581	
1824	912.00000	-0.1572	
1825	912.50000	-0.1556	
1826	913.00000	-0.1495	
1827	913.50000	-0.1450	
1828	914.00000	-0.1453	
1829	914.50000	-0.1456	
1830	915.00000	-0.1477	
1831	915.50000	-0.1492	
1832	916.00000	-0.1453	
1833	916.50000	-0.1480	
1834	917.00000	-0.1483	
1835	917.50000	-0.1489	
1836	918.00000	-0.1529	
1837	918.50000	-0.1538	
1838	919.00000	-0.1523	
1839	919.50000	-0.1514	
1840	920.00000	-0.1514	
1841	920.50000	-0.1505	
1842	921.00000	-0.1523	
1843	921.50000	-0.1578	
1844	922.00000	-0.1572	
1845	922.50000	-0.1575	
1846	923.00000	-0.1541	
1847	923.50000	-0.1498	
1848	924.00000	-0.1501	
1849	924.50000	-0.1514	
1850	925.00000	-0.1462	
1851	925.50000	-0.1447	
1852	926.00000	-0.1413	
1853	926.50000	-0.1370	
1854	927.00000	-0.1355	
1855	927.50000	-0.1343	
1856	928.00000	-0.1331	
1857	928.50000	-0.1321	
1858	929.00000	-0.1315	
1859	929.50000	-0.1273	
1860	930.00000	-0.1187	
1861	930.50000	-0.1190	
1862	931.00000	-0.1187	
1863	931.50000	-0.1196	
1864	932.00000	-0.1239	
1865	932.50000	-0.1184	
1866	933.00000	-0.1196	
1867	933.50000	-0.1212	
1868	934.00000	-0.1205	
1869	934.50000	-0.1227	
1870	935.00000	-0.1251	
1871	935.50000	-0.1239	
1872	936.00000	-0.1230	
1873	936.50000	-0.1208	
1874	937.00000	-0.1215	
1875	937.50000	-0.1193	
1876	938.00000	-0.1236	
1877	938.50000	-0.1270	
1878	939.00000	-0.1242	
1879	939.50000	-0.1227	
1880	940.00000	-0.1199	
1881	940.50000	-0.1172	
1882	941.00000	-0.1196	
1883	941.50000	-0.1144	
1884	942.00000	-0.1126	
1885	942.50000	-0.1102	
1886	943.00000	-0.1031	
1887	943.50000	-0.1016	
1888	944.00000	-0.1001	
1889	944.50000	-0.0977	
1890	945.00000	-0.0970	
1891	945.50000	-0.0955	
1892	946.00000	-0.0916	
1893	946.50000	-0.0845	
1894	947.00000	-0.0827	
1895	947.50000	-0.0815	
1896	948.00000	-0.0818	
1897	948.50000	-0.0848	
1898	949.00000	-0.0821	
1899	949.50000	-0.0790	
1900	950.00000	-0.0821	
1901	950.50000	-0.0818	
1902	951.00000	-0.0827	
1903	951.50000	-0.0851	
1904	952.00000	-0.0851	
1905	952.50000	-0.0830	
1906	953.00000	-0.0818	
1907	953.50000	-0.0806	
1908	954.00000	-0.0800	
1909	954.50000	-0.0818	
1910	955.00000	-0.0864	
1911	955.50000	-0.0858	
1912	956.00000	-0.0830	
1913	956.50000	-0.0809	
1914	957.00000	-0.0757	
1915	957.50000	-0.0787	
1916	958.00000	-0.0757	
1917	958.50000	-0.0714	
1918	959.00000	-0.0696	
1919	959.50000	-0.0659	
1920	960.00000	-0.0616	
1921	960.50000	-0.0604	
1922	961.00000	-0.0592	
1923	961.50000	-0.0580	
1924	962.00000	-0.0568	
1925	962.50000	-0.0549	
1926	963.00000	-0.0482	
1927	963.50000	-0.0433	
1928	964.00000	-0.0433	
1929	964.50000	-0.0439	
1930	965.00000	-0.0449	
1931	965.50000	-0.0461	
1932	966.00000	-0.0424	
1933	966.50000	-0.0455	
1934	967.00000	-0.0455	
1935	967.50000	-0.0452	
1936	968.00000	-0.0488	
1937	968.50000	-0.0500	
1938	969.00000	-0.0485	
1939	969.50000	-0.0485	
1940	970.00000	-0.0473	
1941	970.50000	-0.0464	
1942	971.00000	-0.0479	
1943	971.50000	-0.0543	
1944	972.00000	-0.0531	
1945	972.50000	-0.0519	
1946	973.00000	-0.0504	
1947	973.50000	-0.0470	
1948	974.00000	-0.0479	
1949	974.50000	-0.0479	
1950	975.00000	-0.0436	
1951	975.50000	-0.0421	
1952	976.00000	-0.0391	
1953	976.50000	-0.0345	
1954	977.00000	-0.0320	
1955	977.50000	-0.0317	
1956	978.00000	-0.0308	
1957	978.50000	-0.0314	
1958	979.00000	-0.0299	
1959	979.50000	-0.0266	
1960	980.00000	-0.0180	
1961	980.50000	-0.0177	
1962	981.00000	-0.0198	
1963	981.50000	-0.0208	
1964	982.00000	-0.0241	
1965	982.50000	-0.0198	
1966	983.00000	-0.0198	
1967	983.50000	-0.0232	
1968	984.00000	-0.0232	
1969	984.50000	-0.0253	
1970	985.00000	-0.0275	
1971	985.50000	-0.0278	
1972	986.00000	-0.0275	
1973	986.50000	-0.0269	
1974	987.00000	-0.0262	
1975	987.50000	-0.0266	
1976	988.00000	-0.0314	
1977	988.50000	-0.0351	
1978	989.00000	-0.0339	
1979	989.50000	-0.0317	
1980	990.00000	-0.0302	
1981	990.50000	-0.0284	
1982	991.00000	-0.0311	
1983	991.50000	-0.0266	
1984	992.00000	-0.0256	
1985	992.50000	-0.0247	
1986	993.00000	-0.0186	
1987	993.50000	-0.0168	
1988	994.00000	-0.0156	
1989	994.50000	-0.0153	
1990	995.00000	-0.0156	
1991	995.50000	-0.0150	
1992	996.00000	-0.0131	
1993	996.50000	-0.0055	
1994	997.00000	-0.0043	
1995	997.50000	-0.0040	
1996	998.00000	-0.0064	
1997	998.50000	-0.0089	
1998	999.00000	-0.0076	
1999	999.50000	-0.0055	
2000	1000.00000	-0.0092	
end of complete data
______________________	______________________	______________________	______________________	______________________	______________________	
