______________________	______________________	______________________	______________________	______________________	______________________	______________________	______________________	______________________	
data file :	C:\emka\iox_2_9_5_73\data\20190517-piga.mkt
saved on :	
______________________	______________________	______________________	______________________	______________________	______________________	______________________	______________________	______________________	
printed on :	june   6, 2019, at  11: 12: 51
export mode :	to text file
print author :	no_logged_user
print com :	no available comment
ecgAuto version :	3.3.5.6 []
original sample freq (Hz) :
	 ECG	5000
	 Pig Aortic Pressure	1000
	 Cam Fire	500
	 Bloom A	500
	 Bloom B	500
	 CFR	1000
undersampling factor :		1
print sample freq (Hz) :		5000
______________________	______________________	______________________	______________________	______________________	______________________	______________________	______________________	______________________	

time ms	 ECG	
	V	


...................	...................	...................	...................	...................	...................	...................	...................	...................	...................	...................	...................	...................	
zone-start :	exp_JoVE-AVNERP	time duration s :	00.00000	data duration s :	15.00000	stream section :	1
in-period :	op 1, p 1, r 1, p[r] 1	Noname #1	0.00e+00	
start period-time :	  00:55:37.985
start CPU time :	may  17, 2019, 14: 12: 25
start site-time :	  00:55:37.986
...................	...................	...................	...................	...................	...................	...................	...................	...................	...................	...................	...................	...................	
0.20000	-0.0398	
0.40000	-0.0400	
0.60000	-0.0401	
0.80000	-0.0400	
1.00000	-0.0400	
1.20000	-0.0400	
1.40000	-0.0401	
1.60000	-0.0401	
1.80000	-0.0401	
2.00000	-0.0401	
2.20000	-0.0406	
2.40000	-0.0400	
2.60000	-0.0401	
2.80000	-0.0400	
3.00000	-0.0395	
3.20000	-0.0395	
3.40000	-0.0398	
3.60000	-0.0394	
3.80000	-0.0394	
4.00000	-0.0394	
4.20000	-0.0391	
4.40000	-0.0386	
4.60000	-0.0386	
4.80000	-0.0388	
5.00000	-0.0388	
5.20000	-0.0383	
5.40000	-0.0380	
5.60000	-0.0381	
5.80000	-0.0377	
6.00000	-0.0375	
6.20000	-0.0375	
6.40000	-0.0377	
6.60000	-0.0375	
6.80000	-0.0374	
7.00000	-0.0374	
7.20000	-0.0368	
7.40000	-0.0372	
7.60000	-0.0368	
7.80000	-0.0366	
8.00000	-0.0366	
8.20000	-0.0366	
8.40000	-0.0365	
8.60000	-0.0366	
8.80000	-0.0366	
9.00000	-0.0374	
9.20000	-0.0369	
9.40000	-0.0369	
9.60000	-0.0372	
9.80000	-0.0372	
10.00000	-0.0372	
10.20000	-0.0377	
10.40000	-0.0375	
10.60000	-0.0372	
10.80000	-0.0375	
11.00000	-0.0375	
11.20000	-0.0378	
11.40000	-0.0381	
11.60000	-0.0380	
11.80000	-0.0381	
12.00000	-0.0381	
12.20000	-0.0385	
12.40000	-0.0383	
12.60000	-0.0386	
12.80000	-0.0388	
13.00000	-0.0389	
13.20000	-0.0389	
13.40000	-0.0395	
13.60000	-0.0397	
13.80000	-0.0397	
14.00000	-0.0400	
14.20000	-0.0401	
14.40000	-0.0404	
14.60000	-0.0406	
14.80000	-0.0406	
15.00000	-0.0406	
15.20000	-0.0407	
15.40000	-0.0407	
15.60000	-0.0406	
15.80000	-0.0407	
16.00000	-0.0409	
16.20000	-0.0404	
16.40000	-0.0407	
16.60000	-0.0406	
16.80000	-0.0406	
17.00000	-0.0412	
17.20000	-0.0410	
17.40000	-0.0410	
17.60000	-0.0412	
17.80000	-0.0417	
18.00000	-0.0412	
18.20000	-0.0409	
18.40000	-0.0412	
18.60000	-0.0412	
18.80000	-0.0410	
19.00000	-0.0409	
19.20000	-0.0409	
19.40000	-0.0407	
19.60000	-0.0406	
19.80000	-0.0404	
20.00000	-0.0404	
20.20000	-0.0407	
20.40000	-0.0406	
20.60000	-0.0406	
20.80000	-0.0400	
21.00000	-0.0401	
21.20000	-0.0401	
21.40000	-0.0398	
21.60000	-0.0397	
21.80000	-0.0398	
22.00000	-0.0397	
22.20000	-0.0397	
22.40000	-0.0394	
22.60000	-0.0388	
22.80000	-0.0388	
23.00000	-0.0385	
23.20000	-0.0383	
23.40000	-0.0383	
23.60000	-0.0381	
23.80000	-0.0378	
24.00000	-0.0378	
24.20000	-0.0377	
24.40000	-0.0375	
24.60000	-0.0375	
24.80000	-0.0375	
25.00000	-0.0375	
25.20000	-0.0378	
25.40000	-0.0375	
25.60000	-0.0380	
25.80000	-0.0381	
26.00000	-0.0385	
26.20000	-0.0385	
26.40000	-0.0385	
26.60000	-0.0385	
26.80000	-0.0385	
27.00000	-0.0386	
27.20000	-0.0385	
27.40000	-0.0388	
27.60000	-0.0388	
27.80000	-0.0388	
28.00000	-0.0389	
28.20000	-0.0391	
28.40000	-0.0391	
28.60000	-0.0391	
28.80000	-0.0394	
29.00000	-0.0391	
29.20000	-0.0395	
29.40000	-0.0395	
29.60000	-0.0398	
29.80000	-0.0398	
30.00000	-0.0398	
30.20000	-0.0404	
30.40000	-0.0406	
30.60000	-0.0407	
30.80000	-0.0407	
31.00000	-0.0407	
31.20000	-0.0407	
31.40000	-0.0412	
31.60000	-0.0412	
31.80000	-0.0415	
32.00000	-0.0417	
32.20000	-0.0418	
32.40000	-0.0420	
32.60000	-0.0420	
32.80000	-0.0421	
33.00000	-0.0420	
33.20000	-0.0421	
33.40000	-0.0421	
33.60000	-0.0423	
33.80000	-0.0423	
34.00000	-0.0423	
34.20000	-0.0424	
34.40000	-0.0427	
34.60000	-0.0430	
34.80000	-0.0427	
35.00000	-0.0429	
35.20000	-0.0429	
35.40000	-0.0429	
35.60000	-0.0432	
35.80000	-0.0432	
36.00000	-0.0429	
36.20000	-0.0427	
36.40000	-0.0426	
36.60000	-0.0426	
36.80000	-0.0427	
37.00000	-0.0427	
37.20000	-0.0426	
37.40000	-0.0423	
37.60000	-0.0423	
37.80000	-0.0421	
38.00000	-0.0420	
38.20000	-0.0417	
38.40000	-0.0415	
38.60000	-0.0409	
38.80000	-0.0407	
39.00000	-0.0407	
39.20000	-0.0400	
39.40000	-0.0400	
39.60000	-0.0400	
39.80000	-0.0395	
40.00000	-0.0395	
40.20000	-0.0389	
40.40000	-0.0394	
40.60000	-0.0388	
40.80000	-0.0388	
41.00000	-0.0386	
41.20000	-0.0385	
41.40000	-0.0385	
41.60000	-0.0385	
41.80000	-0.0383	
42.00000	-0.0386	
42.20000	-0.0385	
42.40000	-0.0383	
42.60000	-0.0385	
42.80000	-0.0383	
43.00000	-0.0383	
43.20000	-0.0381	
43.40000	-0.0386	
43.60000	-0.0385	
43.80000	-0.0385	
44.00000	-0.0386	
44.20000	-0.0385	
44.40000	-0.0386	
44.60000	-0.0388	
44.80000	-0.0389	
45.00000	-0.0388	
45.20000	-0.0388	
45.40000	-0.0391	
45.60000	-0.0391	
45.80000	-0.0395	
46.00000	-0.0397	
46.20000	-0.0398	
46.40000	-0.0401	
46.60000	-0.0404	
46.80000	-0.0409	
47.00000	-0.0415	
47.20000	-0.0415	
47.40000	-0.0420	
47.60000	-0.0420	
47.80000	-0.0421	
48.00000	-0.0421	
48.20000	-0.0423	
48.40000	-0.0424	
48.60000	-0.0427	
48.80000	-0.0429	
49.00000	-0.0427	
49.20000	-0.0427	
49.40000	-0.0429	
49.60000	-0.0429	
49.80000	-0.0426	
50.00000	-0.0426	
50.20000	-0.0423	
50.40000	-0.0423	
50.60000	-0.0426	
50.80000	-0.0426	
51.00000	-0.0426	
51.20000	-0.0424	
51.40000	-0.0424	
51.60000	-0.0426	
51.80000	-0.0421	
52.00000	-0.0424	
52.20000	-0.0421	
52.40000	-0.0421	
52.60000	-0.0417	
52.80000	-0.0415	
53.00000	-0.0412	
53.20000	-0.0417	
53.40000	-0.0415	
53.60000	-0.0412	
53.80000	-0.0410	
54.00000	-0.0407	
54.20000	-0.0406	
54.40000	-0.0406	
54.60000	-0.0406	
54.80000	-0.0404	
55.00000	-0.0404	
55.20000	-0.0401	
55.40000	-0.0398	
55.60000	-0.0397	
55.80000	-0.0397	
56.00000	-0.0395	
56.20000	-0.0395	
56.40000	-0.0394	
56.60000	-0.0389	
56.80000	-0.0386	
57.00000	-0.0385	
57.20000	-0.0385	
57.40000	-0.0381	
57.60000	-0.0378	
57.80000	-0.0385	
58.00000	-0.0378	
58.20000	-0.0381	
58.40000	-0.0383	
58.60000	-0.0385	
58.80000	-0.0385	
59.00000	-0.0385	
59.20000	-0.0386	
59.40000	-0.0385	
59.60000	-0.0385	
59.80000	-0.0386	
60.00000	-0.0388	
60.20000	-0.0391	
60.40000	-0.0388	
60.60000	-0.0386	
60.80000	-0.0391	
61.00000	-0.0391	
61.20000	-0.0394	
61.40000	-0.0394	
61.60000	-0.0398	
61.80000	-0.0395	
62.00000	-0.0397	
62.20000	-0.0395	
62.40000	-0.0400	
62.60000	-0.0401	
62.80000	-0.0400	
63.00000	-0.0401	
63.20000	-0.0404	
63.40000	-0.0406	
63.60000	-0.0410	
63.80000	-0.0415	
64.00000	-0.0415	
64.20000	-0.0417	
64.40000	-0.0415	
64.60000	-0.0417	
64.80000	-0.0415	
65.00000	-0.0418	
65.20000	-0.0417	
65.40000	-0.0418	
65.60000	-0.0418	
65.80000	-0.0418	
66.00000	-0.0420	
66.20000	-0.0420	
66.40000	-0.0420	
66.60000	-0.0420	
66.80000	-0.0418	
67.00000	-0.0421	
67.20000	-0.0420	
67.40000	-0.0418	
67.60000	-0.0420	
67.80000	-0.0423	
68.00000	-0.0424	
68.20000	-0.0421	
68.40000	-0.0424	
68.60000	-0.0421	
68.80000	-0.0421	
69.00000	-0.0420	
69.20000	-0.0421	
69.40000	-0.0418	
69.60000	-0.0415	
69.80000	-0.0415	
70.00000	-0.0412	
70.20000	-0.0412	
70.40000	-0.0410	
70.60000	-0.0407	
70.80000	-0.0410	
71.00000	-0.0409	
71.20000	-0.0406	
71.40000	-0.0404	
71.60000	-0.0409	
71.80000	-0.0401	
72.00000	-0.0397	
72.20000	-0.0397	
72.40000	-0.0397	
72.60000	-0.0389	
72.80000	-0.0394	
73.00000	-0.0391	
73.20000	-0.0388	
73.40000	-0.0388	
73.60000	-0.0386	
73.80000	-0.0383	
74.00000	-0.0385	
74.20000	-0.0381	
74.40000	-0.0381	
74.60000	-0.0381	
74.80000	-0.0380	
75.00000	-0.0381	
75.20000	-0.0380	
75.40000	-0.0381	
75.60000	-0.0380	
75.80000	-0.0380	
76.00000	-0.0383	
76.20000	-0.0383	
76.40000	-0.0381	
76.60000	-0.0380	
76.80000	-0.0385	
77.00000	-0.0381	
77.20000	-0.0381	
77.40000	-0.0386	
77.60000	-0.0385	
77.80000	-0.0386	
78.00000	-0.0385	
78.20000	-0.0386	
78.40000	-0.0386	
78.60000	-0.0388	
78.80000	-0.0391	
79.00000	-0.0389	
79.20000	-0.0395	
79.40000	-0.0395	
79.60000	-0.0397	
79.80000	-0.0395	
80.00000	-0.0395	
80.20000	-0.0401	
80.40000	-0.0401	
80.60000	-0.0401	
80.80000	-0.0401	
81.00000	-0.0400	
81.20000	-0.0400	
81.40000	-0.0400	
81.60000	-0.0403	
81.80000	-0.0403	
82.00000	-0.0403	
82.20000	-0.0406	
82.40000	-0.0407	
82.60000	-0.0409	
82.80000	-0.0415	
83.00000	-0.0410	
83.20000	-0.0407	
83.40000	-0.0410	
83.60000	-0.0409	
83.80000	-0.0409	
84.00000	-0.0407	
84.20000	-0.0409	
84.40000	-0.0407	
84.60000	-0.0409	
84.80000	-0.0406	
85.00000	-0.0404	
85.20000	-0.0404	
85.40000	-0.0406	
85.60000	-0.0403	
85.80000	-0.0400	
86.00000	-0.0400	
86.20000	-0.0394	
86.40000	-0.0395	
86.60000	-0.0395	
86.80000	-0.0395	
87.00000	-0.0395	
87.20000	-0.0391	
87.40000	-0.0391	
87.60000	-0.0391	
87.80000	-0.0389	
88.00000	-0.0388	
88.20000	-0.0389	
88.40000	-0.0391	
88.60000	-0.0386	
88.80000	-0.0385	
89.00000	-0.0385	
89.20000	-0.0383	
89.40000	-0.0383	
89.60000	-0.0381	
89.80000	-0.0381	
90.00000	-0.0381	
90.20000	-0.0375	
90.40000	-0.0377	
90.60000	-0.0377	
90.80000	-0.0377	
91.00000	-0.0374	
91.20000	-0.0372	
91.40000	-0.0374	
91.60000	-0.0374	
91.80000	-0.0372	
92.00000	-0.0375	
92.20000	-0.0375	
92.40000	-0.0377	
92.60000	-0.0380	
92.80000	-0.0377	
93.00000	-0.0377	
93.20000	-0.0375	
93.40000	-0.0378	
93.60000	-0.0375	
93.80000	-0.0377	
94.00000	-0.0375	
94.20000	-0.0378	
94.40000	-0.0381	
94.60000	-0.0380	
94.80000	-0.0378	
95.00000	-0.0380	
95.20000	-0.0381	
95.40000	-0.0381	
95.60000	-0.0381	
95.80000	-0.0381	
96.00000	-0.0383	
96.20000	-0.0386	
96.40000	-0.0383	
96.60000	-0.0385	
96.80000	-0.0391	
97.00000	-0.0394	
97.20000	-0.0394	
97.40000	-0.0395	
97.60000	-0.0391	
97.80000	-0.0394	
98.00000	-0.0391	
98.20000	-0.0394	
98.40000	-0.0395	
98.60000	-0.0395	
98.80000	-0.0395	
99.00000	-0.0398	
99.20000	-0.0400	
99.40000	-0.0398	
99.60000	-0.0400	
99.80000	-0.0398	
100.00000	-0.0404	
100.20000	-0.0401	
100.40000	-0.0401	
100.60000	-0.0404	
100.80000	-0.0404	
101.00000	-0.0401	
101.20000	-0.0406	
101.40000	-0.0404	
101.60000	-0.0407	
101.80000	-0.0406	
102.00000	-0.0407	
102.20000	-0.0406	
102.40000	-0.0407	
102.60000	-0.0406	
102.80000	-0.0403	
103.00000	-0.0404	
103.20000	-0.0401	
103.40000	-0.0400	
103.60000	-0.0401	
103.80000	-0.0400	
104.00000	-0.0398	
104.20000	-0.0398	
104.40000	-0.0395	
104.60000	-0.0397	
104.80000	-0.0397	
105.00000	-0.0398	
105.20000	-0.0394	
105.40000	-0.0395	
105.60000	-0.0389	
105.80000	-0.0388	
106.00000	-0.0388	
106.20000	-0.0386	
106.40000	-0.0381	
106.60000	-0.0377	
106.80000	-0.0377	
107.00000	-0.0375	
107.20000	-0.0374	
107.40000	-0.0369	
107.60000	-0.0372	
107.80000	-0.0368	
108.00000	-0.0366	
108.20000	-0.0366	
108.40000	-0.0366	
108.60000	-0.0363	
108.80000	-0.0365	
109.00000	-0.0366	
109.20000	-0.0365	
109.40000	-0.0365	
109.60000	-0.0365	
109.80000	-0.0365	
110.00000	-0.0366	
110.20000	-0.0366	
110.40000	-0.0362	
110.60000	-0.0365	
110.80000	-0.0368	
111.00000	-0.0368	
111.20000	-0.0368	
111.40000	-0.0372	
111.60000	-0.0372	
111.80000	-0.0372	
112.00000	-0.0374	
112.20000	-0.0377	
112.40000	-0.0375	
112.60000	-0.0375	
112.80000	-0.0381	
113.00000	-0.0381	
113.20000	-0.0383	
113.40000	-0.0385	
113.60000	-0.0389	
113.80000	-0.0395	
114.00000	-0.0395	
114.20000	-0.0398	
114.40000	-0.0401	
114.60000	-0.0406	
114.80000	-0.0406	
115.00000	-0.0406	
115.20000	-0.0406	
115.40000	-0.0407	
115.60000	-0.0407	
115.80000	-0.0407	
116.00000	-0.0409	
116.20000	-0.0409	
116.40000	-0.0409	
116.60000	-0.0407	
116.80000	-0.0407	
117.00000	-0.0407	
117.20000	-0.0409	
117.40000	-0.0409	
117.60000	-0.0412	
117.80000	-0.0410	
118.00000	-0.0410	
118.20000	-0.0410	
118.40000	-0.0410	
118.60000	-0.0407	
118.80000	-0.0407	
119.00000	-0.0406	
119.20000	-0.0403	
119.40000	-0.0401	
119.60000	-0.0400	
119.80000	-0.0397	
120.00000	-0.0397	
120.20000	-0.0397	
120.40000	-0.0398	
120.60000	-0.0391	
120.80000	-0.0389	
121.00000	-0.0388	
121.20000	-0.0386	
121.40000	-0.0388	
121.60000	-0.0385	
121.80000	-0.0383	
122.00000	-0.0381	
122.20000	-0.0378	
122.40000	-0.0375	
122.60000	-0.0375	
122.80000	-0.0377	
123.00000	-0.0375	
123.20000	-0.0369	
123.40000	-0.0374	
123.60000	-0.0368	
123.80000	-0.0365	
124.00000	-0.0366	
124.20000	-0.0363	
124.40000	-0.0363	
124.60000	-0.0362	
124.80000	-0.0362	
125.00000	-0.0363	
125.20000	-0.0362	
125.40000	-0.0366	
125.60000	-0.0363	
125.80000	-0.0365	
126.00000	-0.0365	
126.20000	-0.0365	
126.40000	-0.0365	
126.60000	-0.0366	
126.80000	-0.0366	
127.00000	-0.0363	
127.20000	-0.0366	
127.40000	-0.0368	
127.60000	-0.0369	
127.80000	-0.0368	
128.00000	-0.0372	
128.20000	-0.0374	
128.40000	-0.0374	
128.60000	-0.0374	
128.80000	-0.0380	
129.00000	-0.0378	
129.20000	-0.0378	
129.40000	-0.0380	
129.60000	-0.0381	
129.80000	-0.0388	
130.00000	-0.0389	
130.20000	-0.0398	
130.40000	-0.0400	
130.60000	-0.0400	
130.80000	-0.0401	
131.00000	-0.0404	
131.20000	-0.0406	
131.40000	-0.0407	
131.60000	-0.0406	
131.80000	-0.0407	
132.00000	-0.0410	
132.20000	-0.0409	
132.40000	-0.0406	
132.60000	-0.0407	
132.80000	-0.0407	
133.00000	-0.0407	
133.20000	-0.0404	
133.40000	-0.0407	
133.60000	-0.0404	
133.80000	-0.0403	
134.00000	-0.0403	
134.20000	-0.0404	
134.40000	-0.0404	
134.60000	-0.0404	
134.80000	-0.0401	
135.00000	-0.0400	
135.20000	-0.0400	
135.40000	-0.0401	
135.60000	-0.0401	
135.80000	-0.0400	
136.00000	-0.0395	
136.20000	-0.0391	
136.40000	-0.0391	
136.60000	-0.0391	
136.80000	-0.0389	
137.00000	-0.0394	
137.20000	-0.0388	
137.40000	-0.0388	
137.60000	-0.0388	
137.80000	-0.0388	
138.00000	-0.0386	
138.20000	-0.0383	
138.40000	-0.0386	
138.60000	-0.0381	
138.80000	-0.0381	
139.00000	-0.0380	
139.20000	-0.0378	
139.40000	-0.0378	
139.60000	-0.0375	
139.80000	-0.0375	
140.00000	-0.0374	
140.20000	-0.0369	
140.40000	-0.0368	
140.60000	-0.0372	
140.80000	-0.0365	
141.00000	-0.0366	
141.20000	-0.0363	
141.40000	-0.0365	
141.60000	-0.0363	
141.80000	-0.0362	
142.00000	-0.0365	
142.20000	-0.0365	
142.40000	-0.0365	
142.60000	-0.0366	
142.80000	-0.0368	
143.00000	-0.0368	
143.20000	-0.0368	
143.40000	-0.0372	
143.60000	-0.0369	
143.80000	-0.0369	
144.00000	-0.0374	
144.20000	-0.0375	
144.40000	-0.0378	
144.60000	-0.0378	
144.80000	-0.0380	
145.00000	-0.0381	
145.20000	-0.0383	
145.40000	-0.0383	
145.60000	-0.0386	
145.80000	-0.0391	
146.00000	-0.0388	
146.20000	-0.0394	
146.40000	-0.0394	
146.60000	-0.0395	
146.80000	-0.0401	
147.00000	-0.0406	
147.20000	-0.0406	
147.40000	-0.0406	
147.60000	-0.0407	
147.80000	-0.0407	
148.00000	-0.0406	
148.20000	-0.0409	
148.40000	-0.0407	
148.60000	-0.0404	
148.80000	-0.0407	
149.00000	-0.0407	
149.20000	-0.0406	
149.40000	-0.0404	
149.60000	-0.0409	
149.80000	-0.0407	
150.00000	-0.0407	
150.20000	-0.0409	
150.40000	-0.0410	
150.60000	-0.0409	
150.80000	-0.0415	
151.00000	-0.0409	
151.20000	-0.0412	
151.40000	-0.0409	
151.60000	-0.0410	
151.80000	-0.0409	
152.00000	-0.0406	
152.20000	-0.0406	
152.40000	-0.0404	
152.60000	-0.0406	
152.80000	-0.0401	
153.00000	-0.0401	
153.20000	-0.0401	
153.40000	-0.0403	
153.60000	-0.0400	
153.80000	-0.0398	
154.00000	-0.0400	
154.20000	-0.0400	
154.40000	-0.0395	
154.60000	-0.0397	
154.80000	-0.0391	
155.00000	-0.0395	
155.20000	-0.0389	
155.40000	-0.0391	
155.60000	-0.0388	
155.80000	-0.0388	
156.00000	-0.0385	
156.20000	-0.0385	
156.40000	-0.0381	
156.60000	-0.0381	
156.80000	-0.0377	
157.00000	-0.0377	
157.20000	-0.0375	
157.40000	-0.0374	
157.60000	-0.0375	
157.80000	-0.0372	
158.00000	-0.0372	
158.20000	-0.0374	
158.40000	-0.0374	
158.60000	-0.0375	
158.80000	-0.0381	
159.00000	-0.0380	
159.20000	-0.0381	
159.40000	-0.0380	
159.60000	-0.0380	
159.80000	-0.0378	
160.00000	-0.0378	
160.20000	-0.0380	
160.40000	-0.0378	
160.60000	-0.0380	
160.80000	-0.0380	
161.00000	-0.0380	
161.20000	-0.0381	
161.40000	-0.0385	
161.60000	-0.0381	
161.80000	-0.0381	
162.00000	-0.0385	
162.20000	-0.0386	
162.40000	-0.0386	
162.60000	-0.0388	
162.80000	-0.0389	
163.00000	-0.0395	
163.20000	-0.0395	
163.40000	-0.0400	
163.60000	-0.0403	
163.80000	-0.0407	
164.00000	-0.0404	
164.20000	-0.0404	
164.40000	-0.0409	
164.60000	-0.0412	
164.80000	-0.0407	
165.00000	-0.0410	
165.20000	-0.0412	
165.40000	-0.0410	
165.60000	-0.0412	
165.80000	-0.0412	
166.00000	-0.0415	
166.20000	-0.0417	
166.40000	-0.0412	
166.60000	-0.0412	
166.80000	-0.0415	
167.00000	-0.0412	
167.20000	-0.0412	
167.40000	-0.0415	
167.60000	-0.0415	
167.80000	-0.0417	
168.00000	-0.0420	
168.20000	-0.0417	
168.40000	-0.0418	
168.60000	-0.0420	
168.80000	-0.0417	
169.00000	-0.0415	
169.20000	-0.0417	
169.40000	-0.0415	
169.60000	-0.0409	
169.80000	-0.0407	
170.00000	-0.0409	
170.20000	-0.0409	
170.40000	-0.0410	
170.60000	-0.0409	
170.80000	-0.0407	
171.00000	-0.0409	
171.20000	-0.0407	
171.40000	-0.0406	
171.60000	-0.0403	
171.80000	-0.0401	
172.00000	-0.0397	
172.20000	-0.0395	
172.40000	-0.0398	
172.60000	-0.0395	
172.80000	-0.0391	
173.00000	-0.0391	
173.20000	-0.0391	
173.40000	-0.0388	
173.60000	-0.0386	
173.80000	-0.0386	
174.00000	-0.0385	
174.20000	-0.0381	
174.40000	-0.0380	
174.60000	-0.0380	
174.80000	-0.0381	
175.00000	-0.0380	
175.20000	-0.0381	
175.40000	-0.0381	
175.60000	-0.0383	
175.80000	-0.0385	
176.00000	-0.0385	
176.20000	-0.0385	
176.40000	-0.0386	
176.60000	-0.0381	
176.80000	-0.0385	
177.00000	-0.0385	
177.20000	-0.0383	
177.40000	-0.0383	
177.60000	-0.0386	
177.80000	-0.0386	
178.00000	-0.0388	
178.20000	-0.0388	
178.40000	-0.0389	
178.60000	-0.0388	
178.80000	-0.0395	
179.00000	-0.0394	
179.20000	-0.0395	
179.40000	-0.0394	
179.60000	-0.0397	
179.80000	-0.0398	
180.00000	-0.0400	
180.20000	-0.0401	
180.40000	-0.0407	
180.60000	-0.0407	
180.80000	-0.0407	
181.00000	-0.0409	
181.20000	-0.0410	
181.40000	-0.0412	
181.60000	-0.0415	
181.80000	-0.0412	
182.00000	-0.0409	
182.20000	-0.0412	
182.40000	-0.0415	
182.60000	-0.0410	
182.80000	-0.0412	
183.00000	-0.0410	
183.20000	-0.0410	
183.40000	-0.0410	
183.60000	-0.0412	
183.80000	-0.0415	
184.00000	-0.0415	
184.20000	-0.0415	
184.40000	-0.0418	
184.60000	-0.0418	
184.80000	-0.0417	
185.00000	-0.0417	
185.20000	-0.0418	
185.40000	-0.0417	
185.60000	-0.0412	
185.80000	-0.0415	
186.00000	-0.0417	
186.20000	-0.0410	
186.40000	-0.0410	
186.60000	-0.0407	
186.80000	-0.0409	
187.00000	-0.0407	
187.20000	-0.0406	
187.40000	-0.0404	
187.60000	-0.0404	
187.80000	-0.0401	
188.00000	-0.0401	
188.20000	-0.0400	
188.40000	-0.0398	
188.60000	-0.0398	
188.80000	-0.0397	
189.00000	-0.0394	
189.20000	-0.0395	
189.40000	-0.0394	
189.60000	-0.0389	
189.80000	-0.0386	
190.00000	-0.0388	
190.20000	-0.0386	
190.40000	-0.0383	
190.60000	-0.0383	
190.80000	-0.0385	
191.00000	-0.0381	
191.20000	-0.0381	
191.40000	-0.0381	
191.60000	-0.0381	
191.80000	-0.0380	
192.00000	-0.0381	
192.20000	-0.0381	
192.40000	-0.0381	
192.60000	-0.0380	
192.80000	-0.0380	
193.00000	-0.0380	
193.20000	-0.0381	
193.40000	-0.0380	
193.60000	-0.0378	
193.80000	-0.0381	
194.00000	-0.0378	
194.20000	-0.0380	
194.40000	-0.0383	
194.60000	-0.0380	
194.80000	-0.0381	
195.00000	-0.0385	
195.20000	-0.0381	
195.40000	-0.0385	
195.60000	-0.0388	
195.80000	-0.0386	
196.00000	-0.0389	
196.20000	-0.0391	
196.40000	-0.0391	
196.60000	-0.0395	
196.80000	-0.0400	
197.00000	-0.0400	
197.20000	-0.0400	
197.40000	-0.0400	
197.60000	-0.0404	
197.80000	-0.0403	
198.00000	-0.0403	
198.20000	-0.0404	
198.40000	-0.0406	
198.60000	-0.0404	
198.80000	-0.0406	
199.00000	-0.0406	
199.20000	-0.0404	
199.40000	-0.0406	
199.60000	-0.0404	
199.80000	-0.0407	
200.00000	-0.0404	
200.20000	-0.0406	
200.40000	-0.0406	
200.60000	-0.0409	
200.80000	-0.0407	
201.00000	-0.0406	
201.20000	-0.0407	
201.40000	-0.0410	
201.60000	-0.0407	
201.80000	-0.0407	
202.00000	-0.0409	
202.20000	-0.0406	
202.40000	-0.0407	
202.60000	-0.0407	
202.80000	-0.0404	
203.00000	-0.0400	
203.20000	-0.0400	
203.40000	-0.0403	
203.60000	-0.0401	
203.80000	-0.0398	
204.00000	-0.0397	
204.20000	-0.0398	
204.40000	-0.0397	
204.60000	-0.0395	
204.80000	-0.0394	
205.00000	-0.0394	
205.20000	-0.0391	
205.40000	-0.0389	
205.60000	-0.0385	
205.80000	-0.0385	
206.00000	-0.0386	
206.20000	-0.0383	
206.40000	-0.0383	
206.60000	-0.0383	
206.80000	-0.0383	
207.00000	-0.0383	
207.20000	-0.0381	
207.40000	-0.0380	
207.60000	-0.0378	
207.80000	-0.0377	
208.00000	-0.0375	
208.20000	-0.0378	
208.40000	-0.0375	
208.60000	-0.0377	
208.80000	-0.0377	
209.00000	-0.0378	
209.20000	-0.0378	
209.40000	-0.0380	
209.60000	-0.0375	
209.80000	-0.0374	
210.00000	-0.0377	
210.20000	-0.0377	
210.40000	-0.0374	
210.60000	-0.0374	
210.80000	-0.0375	
211.00000	-0.0375	
211.20000	-0.0378	
211.40000	-0.0381	
211.60000	-0.0383	
211.80000	-0.0381	
212.00000	-0.0385	
212.20000	-0.0381	
212.40000	-0.0386	
212.60000	-0.0388	
212.80000	-0.0389	
213.00000	-0.0391	
213.20000	-0.0394	
213.40000	-0.0397	
213.60000	-0.0400	
213.80000	-0.0401	
214.00000	-0.0401	
214.20000	-0.0404	
214.40000	-0.0407	
214.60000	-0.0407	
214.80000	-0.0407	
215.00000	-0.0407	
215.20000	-0.0404	
215.40000	-0.0404	
215.60000	-0.0404	
215.80000	-0.0406	
216.00000	-0.0407	
216.20000	-0.0409	
216.40000	-0.0407	
216.60000	-0.0407	
216.80000	-0.0410	
217.00000	-0.0409	
217.20000	-0.0412	
217.40000	-0.0410	
217.60000	-0.0409	
217.80000	-0.0410	
218.00000	-0.0407	
218.20000	-0.0410	
218.40000	-0.0410	
218.60000	-0.0410	
218.80000	-0.0407	
219.00000	-0.0412	
219.20000	-0.0409	
219.40000	-0.0406	
219.60000	-0.0404	
219.80000	-0.0403	
220.00000	-0.0403	
220.20000	-0.0401	
220.40000	-0.0400	
220.60000	-0.0398	
220.80000	-0.0398	
221.00000	-0.0397	
221.20000	-0.0397	
221.40000	-0.0395	
221.60000	-0.0395	
221.80000	-0.0394	
222.00000	-0.0391	
222.20000	-0.0389	
222.40000	-0.0388	
222.60000	-0.0385	
222.80000	-0.0383	
223.00000	-0.0383	
223.20000	-0.0380	
223.40000	-0.0380	
223.60000	-0.0380	
223.80000	-0.0380	
224.00000	-0.0377	
224.20000	-0.0375	
224.40000	-0.0375	
224.60000	-0.0375	
224.80000	-0.0377	
225.00000	-0.0374	
225.20000	-0.0375	
225.40000	-0.0377	
225.60000	-0.0375	
225.80000	-0.0377	
226.00000	-0.0380	
226.20000	-0.0378	
226.40000	-0.0378	
226.60000	-0.0380	
226.80000	-0.0378	
227.00000	-0.0381	
227.20000	-0.0378	
227.40000	-0.0381	
227.60000	-0.0381	
227.80000	-0.0381	
228.00000	-0.0383	
228.20000	-0.0385	
228.40000	-0.0385	
228.60000	-0.0385	
228.80000	-0.0388	
229.00000	-0.0389	
229.20000	-0.0388	
229.40000	-0.0391	
229.60000	-0.0395	
229.80000	-0.0397	
230.00000	-0.0397	
230.20000	-0.0401	
230.40000	-0.0403	
230.60000	-0.0403	
230.80000	-0.0406	
231.00000	-0.0409	
231.20000	-0.0410	
231.40000	-0.0409	
231.60000	-0.0409	
231.80000	-0.0410	
232.00000	-0.0410	
232.20000	-0.0412	
232.40000	-0.0407	
232.60000	-0.0407	
232.80000	-0.0410	
233.00000	-0.0407	
233.20000	-0.0407	
233.40000	-0.0407	
233.60000	-0.0407	
233.80000	-0.0409	
234.00000	-0.0406	
234.20000	-0.0409	
234.40000	-0.0410	
234.60000	-0.0410	
234.80000	-0.0410	
235.00000	-0.0412	
235.20000	-0.0412	
235.40000	-0.0410	
235.60000	-0.0409	
235.80000	-0.0409	
236.00000	-0.0407	
236.20000	-0.0403	
236.40000	-0.0401	
236.60000	-0.0401	
236.80000	-0.0401	
237.00000	-0.0404	
237.20000	-0.0401	
237.40000	-0.0400	
237.60000	-0.0398	
237.80000	-0.0395	
238.00000	-0.0395	
238.20000	-0.0395	
238.40000	-0.0391	
238.60000	-0.0388	
238.80000	-0.0386	
239.00000	-0.0385	
239.20000	-0.0386	
239.40000	-0.0380	
239.60000	-0.0381	
239.80000	-0.0377	
240.00000	-0.0378	
240.20000	-0.0377	
240.40000	-0.0374	
240.60000	-0.0374	
240.80000	-0.0375	
241.00000	-0.0372	
241.20000	-0.0372	
241.40000	-0.0374	
241.60000	-0.0375	
241.80000	-0.0375	
242.00000	-0.0377	
242.20000	-0.0377	
242.40000	-0.0377	
242.60000	-0.0378	
242.80000	-0.0378	
243.00000	-0.0375	
243.20000	-0.0380	
243.40000	-0.0377	
243.60000	-0.0377	
243.80000	-0.0377	
244.00000	-0.0377	
244.20000	-0.0378	
244.40000	-0.0380	
244.60000	-0.0383	
244.80000	-0.0385	
245.00000	-0.0383	
245.20000	-0.0386	
245.40000	-0.0386	
245.60000	-0.0383	
245.80000	-0.0388	
246.00000	-0.0385	
246.20000	-0.0389	
246.40000	-0.0391	
246.60000	-0.0394	
246.80000	-0.0394	
247.00000	-0.0398	
247.20000	-0.0401	
247.40000	-0.0401	
247.60000	-0.0403	
247.80000	-0.0403	
248.00000	-0.0403	
248.20000	-0.0401	
248.40000	-0.0401	
248.60000	-0.0400	
248.80000	-0.0401	
249.00000	-0.0403	
249.20000	-0.0401	
249.40000	-0.0404	
249.60000	-0.0403	
249.80000	-0.0403	
250.00000	-0.0400	
250.20000	-0.0404	
250.40000	-0.0407	
250.60000	-0.0406	
250.80000	-0.0407	
251.00000	-0.0406	
251.20000	-0.0409	
251.40000	-0.0407	
251.60000	-0.0406	
251.80000	-0.0407	
252.00000	-0.0407	
252.20000	-0.0407	
252.40000	-0.0406	
252.60000	-0.0404	
252.80000	-0.0401	
253.00000	-0.0400	
253.20000	-0.0401	
253.40000	-0.0400	
253.60000	-0.0398	
253.80000	-0.0397	
254.00000	-0.0394	
254.20000	-0.0394	
254.40000	-0.0395	
254.60000	-0.0391	
254.80000	-0.0389	
255.00000	-0.0395	
255.20000	-0.0389	
255.40000	-0.0389	
255.60000	-0.0388	
255.80000	-0.0385	
256.00000	-0.0381	
256.20000	-0.0380	
256.40000	-0.0383	
256.60000	-0.0377	
256.80000	-0.0378	
257.00000	-0.0375	
257.20000	-0.0374	
257.40000	-0.0374	
257.60000	-0.0374	
257.80000	-0.0374	
258.00000	-0.0375	
258.20000	-0.0374	
258.40000	-0.0375	
258.60000	-0.0375	
258.80000	-0.0377	
259.00000	-0.0377	
259.20000	-0.0380	
259.40000	-0.0378	
259.60000	-0.0378	
259.80000	-0.0378	
260.00000	-0.0378	
260.20000	-0.0380	
260.40000	-0.0380	
260.60000	-0.0378	
260.80000	-0.0380	
261.00000	-0.0383	
261.20000	-0.0383	
261.40000	-0.0381	
261.60000	-0.0388	
261.80000	-0.0386	
262.00000	-0.0388	
262.20000	-0.0389	
262.40000	-0.0391	
262.60000	-0.0394	
262.80000	-0.0395	
263.00000	-0.0398	
263.20000	-0.0398	
263.40000	-0.0400	
263.60000	-0.0403	
263.80000	-0.0404	
264.00000	-0.0406	
264.20000	-0.0407	
264.40000	-0.0407	
264.60000	-0.0407	
264.80000	-0.0409	
265.00000	-0.0409	
265.20000	-0.0407	
265.40000	-0.0407	
265.60000	-0.0407	
265.80000	-0.0410	
266.00000	-0.0407	
266.20000	-0.0407	
266.40000	-0.0407	
266.60000	-0.0407	
266.80000	-0.0410	
267.00000	-0.0409	
267.20000	-0.0412	
267.40000	-0.0412	
267.60000	-0.0412	
267.80000	-0.0417	
268.00000	-0.0412	
268.20000	-0.0417	
268.40000	-0.0415	
268.60000	-0.0412	
268.80000	-0.0418	
269.00000	-0.0415	
269.20000	-0.0410	
269.40000	-0.0409	
269.60000	-0.0407	
269.80000	-0.0407	
270.00000	-0.0406	
270.20000	-0.0407	
270.40000	-0.0407	
270.60000	-0.0404	
270.80000	-0.0404	
271.00000	-0.0403	
271.20000	-0.0400	
271.40000	-0.0398	
271.60000	-0.0397	
271.80000	-0.0395	
272.00000	-0.0395	
272.20000	-0.0391	
272.40000	-0.0391	
272.60000	-0.0388	
272.80000	-0.0388	
273.00000	-0.0388	
273.20000	-0.0388	
273.40000	-0.0386	
273.60000	-0.0381	
273.80000	-0.0378	
274.00000	-0.0378	
274.20000	-0.0381	
274.40000	-0.0380	
274.60000	-0.0378	
274.80000	-0.0383	
275.00000	-0.0381	
275.20000	-0.0381	
275.40000	-0.0383	
275.60000	-0.0383	
275.80000	-0.0383	
276.00000	-0.0386	
276.20000	-0.0386	
276.40000	-0.0388	
276.60000	-0.0386	
276.80000	-0.0388	
277.00000	-0.0386	
277.20000	-0.0385	
277.40000	-0.0386	
277.60000	-0.0386	
277.80000	-0.0388	
278.00000	-0.0394	
278.20000	-0.0395	
278.40000	-0.0394	
278.60000	-0.0391	
278.80000	-0.0395	
279.00000	-0.0395	
279.20000	-0.0398	
279.40000	-0.0400	
279.60000	-0.0403	
279.80000	-0.0401	
280.00000	-0.0407	
280.20000	-0.0409	
280.40000	-0.0415	
280.60000	-0.0418	
280.80000	-0.0417	
281.00000	-0.0412	
281.20000	-0.0415	
281.40000	-0.0417	
281.60000	-0.0417	
281.80000	-0.0415	
282.00000	-0.0418	
282.20000	-0.0417	
282.40000	-0.0415	
282.60000	-0.0418	
282.80000	-0.0418	
283.00000	-0.0418	
283.20000	-0.0417	
283.40000	-0.0420	
283.60000	-0.0418	
283.80000	-0.0420	
284.00000	-0.0420	
284.20000	-0.0418	
284.40000	-0.0421	
284.60000	-0.0420	
284.80000	-0.0420	
285.00000	-0.0420	
285.20000	-0.0420	
285.40000	-0.0420	
285.60000	-0.0421	
285.80000	-0.0418	
286.00000	-0.0420	
286.20000	-0.0418	
286.40000	-0.0409	
286.60000	-0.0412	
286.80000	-0.0412	
287.00000	-0.0412	
287.20000	-0.0410	
287.40000	-0.0409	
287.60000	-0.0409	
287.80000	-0.0407	
288.00000	-0.0407	
288.20000	-0.0406	
288.40000	-0.0404	
288.60000	-0.0406	
288.80000	-0.0404	
289.00000	-0.0401	
289.20000	-0.0397	
289.40000	-0.0398	
289.60000	-0.0397	
289.80000	-0.0395	
290.00000	-0.0395	
290.20000	-0.0391	
290.40000	-0.0394	
290.60000	-0.0389	
290.80000	-0.0389	
291.00000	-0.0391	
291.20000	-0.0389	
291.40000	-0.0394	
291.60000	-0.0389	
291.80000	-0.0394	
292.00000	-0.0394	
292.20000	-0.0391	
292.40000	-0.0391	
292.60000	-0.0395	
292.80000	-0.0395	
293.00000	-0.0391	
293.20000	-0.0395	
293.40000	-0.0391	
293.60000	-0.0395	
293.80000	-0.0394	
294.00000	-0.0394	
294.20000	-0.0395	
294.40000	-0.0395	
294.60000	-0.0398	
294.80000	-0.0398	
295.00000	-0.0397	
295.20000	-0.0401	
295.40000	-0.0400	
295.60000	-0.0401	
295.80000	-0.0406	
296.00000	-0.0406	
296.20000	-0.0409	
296.40000	-0.0410	
296.60000	-0.0412	
296.80000	-0.0418	
297.00000	-0.0420	
297.20000	-0.0421	
297.40000	-0.0421	
297.60000	-0.0423	
297.80000	-0.0423	
298.00000	-0.0423	
298.20000	-0.0424	
298.40000	-0.0426	
298.60000	-0.0423	
298.80000	-0.0426	
299.00000	-0.0424	
299.20000	-0.0423	
299.40000	-0.0424	
299.60000	-0.0426	
299.80000	-0.0421	
300.00000	-0.0426	
300.20000	-0.0424	
300.40000	-0.0423	
300.60000	-0.0424	
300.80000	-0.0423	
301.00000	-0.0424	
301.20000	-0.0429	
301.40000	-0.0427	
301.60000	-0.0427	
301.80000	-0.0429	
302.00000	-0.0427	
302.20000	-0.0427	
302.40000	-0.0426	
302.60000	-0.0421	
302.80000	-0.0418	
303.00000	-0.0418	
303.20000	-0.0418	
303.40000	-0.0415	
303.60000	-0.0417	
303.80000	-0.0417	
304.00000	-0.0415	
304.20000	-0.0412	
304.40000	-0.0410	
304.60000	-0.0409	
304.80000	-0.0407	
305.00000	-0.0407	
305.20000	-0.0406	
305.40000	-0.0403	
305.60000	-0.0403	
305.80000	-0.0403	
306.00000	-0.0398	
306.20000	-0.0400	
306.40000	-0.0400	
306.60000	-0.0395	
306.80000	-0.0395	
307.00000	-0.0391	
307.20000	-0.0386	
307.40000	-0.0389	
307.60000	-0.0386	
307.80000	-0.0385	
308.00000	-0.0386	
308.20000	-0.0385	
308.40000	-0.0388	
308.60000	-0.0388	
308.80000	-0.0391	
309.00000	-0.0389	
309.20000	-0.0391	
309.40000	-0.0394	
309.60000	-0.0389	
309.80000	-0.0395	
310.00000	-0.0394	
310.20000	-0.0394	
310.40000	-0.0391	
310.60000	-0.0391	
310.80000	-0.0394	
311.00000	-0.0391	
311.20000	-0.0395	
311.40000	-0.0400	
311.60000	-0.0398	
311.80000	-0.0397	
312.00000	-0.0398	
312.20000	-0.0398	
312.40000	-0.0398	
312.60000	-0.0400	
312.80000	-0.0400	
313.00000	-0.0404	
313.20000	-0.0404	
313.40000	-0.0407	
313.60000	-0.0410	
313.80000	-0.0415	
314.00000	-0.0415	
314.20000	-0.0417	
314.40000	-0.0418	
314.60000	-0.0420	
314.80000	-0.0418	
315.00000	-0.0417	
315.20000	-0.0418	
315.40000	-0.0420	
315.60000	-0.0420	
315.80000	-0.0417	
316.00000	-0.0421	
316.20000	-0.0421	
316.40000	-0.0421	
316.60000	-0.0420	
316.80000	-0.0424	
317.00000	-0.0423	
317.20000	-0.0421	
317.40000	-0.0421	
317.60000	-0.0421	
317.80000	-0.0424	
318.00000	-0.0423	
318.20000	-0.0423	
318.40000	-0.0423	
318.60000	-0.0423	
318.80000	-0.0421	
319.00000	-0.0423	
319.20000	-0.0423	
319.40000	-0.0418	
319.60000	-0.0417	
319.80000	-0.0417	
320.00000	-0.0415	
320.20000	-0.0415	
320.40000	-0.0417	
320.60000	-0.0410	
320.80000	-0.0410	
321.00000	-0.0406	
321.20000	-0.0409	
321.40000	-0.0406	
321.60000	-0.0407	
321.80000	-0.0403	
322.00000	-0.0400	
322.20000	-0.0398	
322.40000	-0.0395	
322.60000	-0.0395	
322.80000	-0.0397	
323.00000	-0.0394	
323.20000	-0.0395	
323.40000	-0.0394	
323.60000	-0.0389	
323.80000	-0.0388	
324.00000	-0.0386	
324.20000	-0.0385	
324.40000	-0.0386	
324.60000	-0.0386	
324.80000	-0.0385	
325.00000	-0.0385	
325.20000	-0.0385	
325.40000	-0.0386	
325.60000	-0.0388	
325.80000	-0.0386	
326.00000	-0.0389	
326.20000	-0.0388	
326.40000	-0.0389	
326.60000	-0.0391	
326.80000	-0.0394	
327.00000	-0.0394	
327.20000	-0.0388	
327.40000	-0.0394	
327.60000	-0.0394	
327.80000	-0.0394	
328.00000	-0.0395	
328.20000	-0.0398	
328.40000	-0.0400	
328.60000	-0.0400	
328.80000	-0.0401	
329.00000	-0.0401	
329.20000	-0.0404	
329.40000	-0.0406	
329.60000	-0.0407	
329.80000	-0.0407	
330.00000	-0.0410	
330.20000	-0.0412	
330.40000	-0.0417	
330.60000	-0.0417	
330.80000	-0.0418	
331.00000	-0.0420	
331.20000	-0.0420	
331.40000	-0.0421	
331.60000	-0.0421	
331.80000	-0.0421	
332.00000	-0.0420	
332.20000	-0.0421	
332.40000	-0.0421	
332.60000	-0.0420	
332.80000	-0.0421	
333.00000	-0.0420	
333.20000	-0.0421	
333.40000	-0.0418	
333.60000	-0.0421	
333.80000	-0.0423	
334.00000	-0.0421	
334.20000	-0.0423	
334.40000	-0.0424	
334.60000	-0.0426	
334.80000	-0.0424	
335.00000	-0.0424	
335.20000	-0.0424	
335.40000	-0.0421	
335.60000	-0.0421	
335.80000	-0.0421	
336.00000	-0.0420	
336.20000	-0.0415	
336.40000	-0.0417	
336.60000	-0.0418	
336.80000	-0.0418	
337.00000	-0.0417	
337.20000	-0.0412	
337.40000	-0.0412	
337.60000	-0.0415	
337.80000	-0.0412	
338.00000	-0.0409	
338.20000	-0.0412	
338.40000	-0.0412	
338.60000	-0.0407	
338.80000	-0.0406	
339.00000	-0.0406	
339.20000	-0.0401	
339.40000	-0.0401	
339.60000	-0.0403	
339.80000	-0.0400	
340.00000	-0.0400	
340.20000	-0.0398	
340.40000	-0.0395	
340.60000	-0.0395	
340.80000	-0.0395	
341.00000	-0.0395	
341.20000	-0.0394	
341.40000	-0.0394	
341.60000	-0.0391	
341.80000	-0.0395	
342.00000	-0.0395	
342.20000	-0.0395	
342.40000	-0.0395	
342.60000	-0.0397	
342.80000	-0.0397	
343.00000	-0.0398	
343.20000	-0.0398	
343.40000	-0.0397	
343.60000	-0.0398	
343.80000	-0.0398	
344.00000	-0.0398	
344.20000	-0.0400	
344.40000	-0.0400	
344.60000	-0.0401	
344.80000	-0.0406	
345.00000	-0.0406	
345.20000	-0.0406	
345.40000	-0.0404	
345.60000	-0.0407	
345.80000	-0.0407	
346.00000	-0.0409	
346.20000	-0.0415	
346.40000	-0.0417	
346.60000	-0.0417	
346.80000	-0.0420	
347.00000	-0.0421	
347.20000	-0.0424	
347.40000	-0.0424	
347.60000	-0.0424	
347.80000	-0.0423	
348.00000	-0.0429	
348.20000	-0.0426	
348.40000	-0.0427	
348.60000	-0.0426	
348.80000	-0.0430	
349.00000	-0.0427	
349.20000	-0.0427	
349.40000	-0.0426	
349.60000	-0.0429	
349.80000	-0.0427	
350.00000	-0.0429	
350.20000	-0.0427	
350.40000	-0.0429	
350.60000	-0.0432	
350.80000	-0.0427	
351.00000	-0.0432	
351.20000	-0.0433	
351.40000	-0.0432	
351.60000	-0.0436	
351.80000	-0.0432	
352.00000	-0.0433	
352.20000	-0.0436	
352.40000	-0.0433	
352.60000	-0.0433	
352.80000	-0.0432	
353.00000	-0.0429	
353.20000	-0.0429	
353.40000	-0.0429	
353.60000	-0.0429	
353.80000	-0.0427	
354.00000	-0.0424	
354.20000	-0.0427	
354.40000	-0.0424	
354.60000	-0.0423	
354.80000	-0.0423	
355.00000	-0.0420	
355.20000	-0.0415	
355.40000	-0.0415	
355.60000	-0.0409	
355.80000	-0.0412	
356.00000	-0.0410	
356.20000	-0.0407	
356.40000	-0.0412	
356.60000	-0.0407	
356.80000	-0.0407	
357.00000	-0.0404	
357.20000	-0.0404	
357.40000	-0.0404	
357.60000	-0.0403	
357.80000	-0.0401	
358.00000	-0.0401	
358.20000	-0.0403	
358.40000	-0.0403	
358.60000	-0.0401	
358.80000	-0.0406	
359.00000	-0.0406	
359.20000	-0.0404	
359.40000	-0.0407	
359.60000	-0.0409	
359.80000	-0.0407	
360.00000	-0.0406	
360.20000	-0.0407	
360.40000	-0.0407	
360.60000	-0.0407	
360.80000	-0.0407	
361.00000	-0.0409	
361.20000	-0.0415	
361.40000	-0.0412	
361.60000	-0.0415	
361.80000	-0.0417	
362.00000	-0.0415	
362.20000	-0.0418	
362.40000	-0.0420	
362.60000	-0.0421	
362.80000	-0.0421	
363.00000	-0.0423	
363.20000	-0.0423	
363.40000	-0.0426	
363.60000	-0.0430	
363.80000	-0.0432	
364.00000	-0.0433	
364.20000	-0.0432	
364.40000	-0.0436	
364.60000	-0.0436	
364.80000	-0.0438	
365.00000	-0.0433	
365.20000	-0.0436	
365.40000	-0.0438	
365.60000	-0.0438	
365.80000	-0.0439	
366.00000	-0.0438	
366.20000	-0.0438	
366.40000	-0.0436	
366.60000	-0.0439	
366.80000	-0.0439	
367.00000	-0.0436	
367.20000	-0.0441	
367.40000	-0.0439	
367.60000	-0.0439	
367.80000	-0.0441	
368.00000	-0.0441	
368.20000	-0.0443	
368.40000	-0.0438	
368.60000	-0.0438	
368.80000	-0.0438	
369.00000	-0.0436	
369.20000	-0.0439	
369.40000	-0.0433	
369.60000	-0.0432	
369.80000	-0.0427	
370.00000	-0.0430	
370.20000	-0.0427	
370.40000	-0.0430	
370.60000	-0.0427	
370.80000	-0.0426	
371.00000	-0.0421	
371.20000	-0.0424	
371.40000	-0.0421	
371.60000	-0.0423	
371.80000	-0.0421	
372.00000	-0.0418	
372.20000	-0.0415	
372.40000	-0.0415	
372.60000	-0.0415	
372.80000	-0.0412	
373.00000	-0.0412	
373.20000	-0.0407	
373.40000	-0.0407	
373.60000	-0.0406	
373.80000	-0.0406	
374.00000	-0.0404	
374.20000	-0.0404	
374.40000	-0.0406	
374.60000	-0.0403	
374.80000	-0.0404	
375.00000	-0.0404	
375.20000	-0.0404	
375.40000	-0.0406	
375.60000	-0.0407	
375.80000	-0.0407	
376.00000	-0.0404	
376.20000	-0.0406	
376.40000	-0.0406	
376.60000	-0.0404	
376.80000	-0.0409	
377.00000	-0.0404	
377.20000	-0.0407	
377.40000	-0.0406	
377.60000	-0.0410	
377.80000	-0.0412	
378.00000	-0.0412	
378.20000	-0.0412	
378.40000	-0.0415	
378.60000	-0.0415	
378.80000	-0.0417	
379.00000	-0.0418	
379.20000	-0.0420	
379.40000	-0.0420	
379.60000	-0.0421	
379.80000	-0.0426	
380.00000	-0.0426	
380.20000	-0.0432	
380.40000	-0.0436	
380.60000	-0.0430	
380.80000	-0.0432	
381.00000	-0.0432	
381.20000	-0.0430	
381.40000	-0.0433	
381.60000	-0.0436	
381.80000	-0.0438	
382.00000	-0.0436	
382.20000	-0.0433	
382.40000	-0.0432	
382.60000	-0.0432	
382.80000	-0.0432	
383.00000	-0.0432	
383.20000	-0.0432	
383.40000	-0.0432	
383.60000	-0.0432	
383.80000	-0.0430	
384.00000	-0.0430	
384.20000	-0.0433	
384.40000	-0.0436	
384.60000	-0.0438	
384.80000	-0.0436	
385.00000	-0.0438	
385.20000	-0.0438	
385.40000	-0.0439	
385.60000	-0.0436	
385.80000	-0.0433	
386.00000	-0.0430	
386.20000	-0.0427	
386.40000	-0.0424	
386.60000	-0.0427	
386.80000	-0.0427	
387.00000	-0.0427	
387.20000	-0.0429	
387.40000	-0.0424	
387.60000	-0.0426	
387.80000	-0.0423	
388.00000	-0.0421	
388.20000	-0.0426	
388.40000	-0.0420	
388.60000	-0.0417	
388.80000	-0.0412	
389.00000	-0.0410	
389.20000	-0.0412	
389.40000	-0.0415	
389.60000	-0.0410	
389.80000	-0.0407	
390.00000	-0.0407	
390.20000	-0.0404	
390.40000	-0.0404	
390.60000	-0.0406	
390.80000	-0.0403	
391.00000	-0.0400	
391.20000	-0.0401	
391.40000	-0.0401	
391.60000	-0.0400	
391.80000	-0.0400	
392.00000	-0.0401	
392.20000	-0.0403	
392.40000	-0.0401	
392.60000	-0.0400	
392.80000	-0.0400	
393.00000	-0.0397	
393.20000	-0.0401	
393.40000	-0.0400	
393.60000	-0.0398	
393.80000	-0.0395	
394.00000	-0.0395	
394.20000	-0.0397	
394.40000	-0.0395	
394.60000	-0.0397	
394.80000	-0.0398	
395.00000	-0.0389	
395.20000	-0.0391	
395.40000	-0.0389	
395.60000	-0.0389	
395.80000	-0.0386	
396.00000	-0.0386	
396.20000	-0.0385	
396.40000	-0.0381	
396.60000	-0.0378	
396.80000	-0.0380	
397.00000	-0.0380	
397.20000	-0.0378	
397.40000	-0.0374	
397.60000	-0.0368	
397.80000	-0.0360	
398.00000	-0.0359	
398.20000	-0.0348	
398.40000	-0.0342	
398.60000	-0.0336	
398.80000	-0.0331	
399.00000	-0.0322	
399.20000	-0.0314	
399.40000	-0.0310	
399.60000	-0.0302	
399.80000	-0.0296	
400.00000	-0.0293	
400.20000	-0.0285	
400.40000	-0.0281	
400.60000	-0.0281	
400.80000	-0.0276	
401.00000	-0.0269	
401.20000	-0.0269	
401.40000	-0.0261	
401.60000	-0.0255	
401.80000	-0.0247	
402.00000	-0.0240	
402.20000	-0.0232	
402.40000	-0.0220	
402.60000	-0.0208	
402.80000	-0.0194	
403.00000	-0.0182	
403.20000	-0.0169	
403.40000	-0.0154	
403.60000	-0.0137	
403.80000	-0.0122	
404.00000	-0.0098	
404.20000	-0.0078	
404.40000	-0.0056	
404.60000	-0.0031	
404.80000	-0.0006	
405.00000	 0.0014	
405.20000	 0.0038	
405.40000	 0.0066	
405.60000	 0.0092	
405.80000	 0.0124	
406.00000	 0.0156	
406.20000	 0.0195	
406.40000	 0.0240	
406.60000	 0.0288	
406.80000	 0.0346	
407.00000	 0.0415	
407.20000	 0.0490	
407.40000	 0.0571	
407.60000	 0.0664	
407.80000	 0.0760	
408.00000	 0.0861	
408.20000	 0.0966	
408.40000	 0.1077	
408.60000	 0.1184	
408.80000	 0.1300	
409.00000	 0.1410	
409.20000	 0.1511	
409.40000	 0.1610	
409.60000	 0.1707	
409.80000	 0.1791	
410.00000	 0.1866	
410.20000	 0.1936	
410.40000	 0.1994	
410.60000	 0.2043	
410.80000	 0.2075	
411.00000	 0.2106	
411.20000	 0.2121	
411.40000	 0.2124	
411.60000	 0.2122	
411.80000	 0.2112	
412.00000	 0.2084	
412.20000	 0.2055	
412.40000	 0.2014	
412.60000	 0.1967	
412.80000	 0.1920	
413.00000	 0.1862	
413.20000	 0.1805	
413.40000	 0.1741	
413.60000	 0.1675	
413.80000	 0.1610	
414.00000	 0.1547	
414.20000	 0.1479	
414.40000	 0.1413	
414.60000	 0.1346	
414.80000	 0.1280	
415.00000	 0.1213	
415.20000	 0.1157	
415.40000	 0.1097	
415.60000	 0.1041	
415.80000	 0.0987	
416.00000	 0.0935	
416.20000	 0.0887	
416.40000	 0.0844	
416.60000	 0.0798	
416.80000	 0.0755	
417.00000	 0.0719	
417.20000	 0.0688	
417.40000	 0.0653	
417.60000	 0.0630	
417.80000	 0.0606	
418.00000	 0.0587	
418.20000	 0.0571	
418.40000	 0.0565	
418.60000	 0.0555	
418.80000	 0.0552	
419.00000	 0.0551	
419.20000	 0.0554	
419.40000	 0.0565	
419.60000	 0.0574	
419.80000	 0.0580	
420.00000	 0.0594	
420.20000	 0.0607	
420.40000	 0.0620	
420.60000	 0.0636	
420.80000	 0.0653	
421.00000	 0.0674	
421.20000	 0.0693	
421.40000	 0.0713	
421.60000	 0.0725	
421.80000	 0.0748	
422.00000	 0.0768	
422.20000	 0.0781	
422.40000	 0.0790	
422.60000	 0.0804	
422.80000	 0.0813	
423.00000	 0.0821	
423.20000	 0.0830	
423.40000	 0.0838	
423.60000	 0.0841	
423.80000	 0.0845	
424.00000	 0.0845	
424.20000	 0.0847	
424.40000	 0.0848	
424.60000	 0.0851	
424.80000	 0.0853	
425.00000	 0.0854	
425.20000	 0.0854	
425.40000	 0.0861	
425.60000	 0.0862	
425.80000	 0.0867	
426.00000	 0.0868	
426.20000	 0.0871	
426.40000	 0.0874	
426.60000	 0.0879	
426.80000	 0.0880	
427.00000	 0.0883	
427.20000	 0.0883	
427.40000	 0.0882	
427.60000	 0.0880	
427.80000	 0.0873	
428.00000	 0.0867	
428.20000	 0.0856	
428.40000	 0.0851	
428.60000	 0.0844	
428.80000	 0.0833	
429.00000	 0.0822	
429.20000	 0.0807	
429.40000	 0.0790	
429.60000	 0.0769	
429.80000	 0.0746	
430.00000	 0.0714	
430.20000	 0.0677	
430.40000	 0.0641	
430.60000	 0.0598	
430.80000	 0.0555	
431.00000	 0.0505	
431.20000	 0.0449	
431.40000	 0.0389	
431.60000	 0.0333	
431.80000	 0.0272	
432.00000	 0.0206	
432.20000	 0.0143	
432.40000	 0.0082	
432.60000	 0.0015	
432.80000	-0.0044	
433.00000	-0.0107	
433.20000	-0.0168	
433.40000	-0.0230	
433.60000	-0.0282	
433.80000	-0.0339	
434.00000	-0.0394	
434.20000	-0.0443	
434.40000	-0.0488	
434.60000	-0.0533	
434.80000	-0.0574	
435.00000	-0.0613	
435.20000	-0.0653	
435.40000	-0.0688	
435.60000	-0.0723	
435.80000	-0.0755	
436.00000	-0.0784	
436.20000	-0.0810	
436.40000	-0.0836	
436.60000	-0.0864	
436.80000	-0.0882	
437.00000	-0.0903	
437.20000	-0.0917	
437.40000	-0.0931	
437.60000	-0.0938	
437.80000	-0.0948	
438.00000	-0.0951	
438.20000	-0.0955	
438.40000	-0.0955	
438.60000	-0.0952	
438.80000	-0.0951	
439.00000	-0.0941	
439.20000	-0.0934	
439.40000	-0.0926	
439.60000	-0.0920	
439.80000	-0.0916	
440.00000	-0.0906	
440.20000	-0.0905	
440.40000	-0.0903	
440.60000	-0.0899	
440.80000	-0.0896	
441.00000	-0.0896	
441.20000	-0.0893	
441.40000	-0.0891	
441.60000	-0.0890	
441.80000	-0.0894	
442.00000	-0.0893	
442.20000	-0.0894	
442.40000	-0.0894	
442.60000	-0.0899	
442.80000	-0.0900	
443.00000	-0.0906	
443.20000	-0.0912	
443.40000	-0.0919	
443.60000	-0.0928	
443.80000	-0.0935	
444.00000	-0.0943	
444.20000	-0.0960	
444.40000	-0.0970	
444.60000	-0.0980	
444.80000	-0.0992	
445.00000	-0.1006	
445.20000	-0.1021	
445.40000	-0.1038	
445.60000	-0.1048	
445.80000	-0.1064	
446.00000	-0.1077	
446.20000	-0.1086	
446.40000	-0.1100	
446.60000	-0.1111	
446.80000	-0.1125	
447.00000	-0.1137	
447.20000	-0.1146	
447.40000	-0.1151	
447.60000	-0.1158	
447.80000	-0.1164	
448.00000	-0.1169	
448.20000	-0.1173	
448.40000	-0.1175	
448.60000	-0.1180	
448.80000	-0.1181	
449.00000	-0.1183	
449.20000	-0.1184	
449.40000	-0.1184	
449.60000	-0.1187	
449.80000	-0.1189	
450.00000	-0.1187	
450.20000	-0.1189	
450.40000	-0.1190	
450.60000	-0.1192	
450.80000	-0.1195	
451.00000	-0.1196	
451.20000	-0.1202	
451.40000	-0.1205	
451.60000	-0.1207	
451.80000	-0.1208	
452.00000	-0.1208	
452.20000	-0.1208	
452.40000	-0.1210	
452.60000	-0.1208	
452.80000	-0.1205	
453.00000	-0.1202	
453.20000	-0.1202	
453.40000	-0.1199	
453.60000	-0.1201	
453.80000	-0.1192	
454.00000	-0.1190	
454.20000	-0.1189	
454.40000	-0.1184	
454.60000	-0.1180	
454.80000	-0.1175	
455.00000	-0.1173	
455.20000	-0.1169	
455.40000	-0.1167	
455.60000	-0.1167	
455.80000	-0.1164	
456.00000	-0.1164	
456.20000	-0.1164	
456.40000	-0.1163	
456.60000	-0.1164	
456.80000	-0.1163	
457.00000	-0.1161	
457.20000	-0.1166	
457.40000	-0.1169	
457.60000	-0.1169	
457.80000	-0.1169	
458.00000	-0.1173	
458.20000	-0.1180	
458.40000	-0.1180	
458.60000	-0.1181	
458.80000	-0.1187	
459.00000	-0.1189	
459.20000	-0.1189	
459.40000	-0.1195	
459.60000	-0.1190	
459.80000	-0.1190	
460.00000	-0.1190	
460.20000	-0.1190	
460.40000	-0.1189	
460.60000	-0.1184	
460.80000	-0.1184	
461.00000	-0.1183	
461.20000	-0.1181	
461.40000	-0.1184	
461.60000	-0.1181	
461.80000	-0.1180	
462.00000	-0.1173	
462.20000	-0.1170	
462.40000	-0.1169	
462.60000	-0.1169	
462.80000	-0.1166	
463.00000	-0.1160	
463.20000	-0.1161	
463.40000	-0.1161	
463.60000	-0.1160	
463.80000	-0.1154	
464.00000	-0.1149	
464.20000	-0.1144	
464.40000	-0.1143	
464.60000	-0.1138	
464.80000	-0.1134	
465.00000	-0.1131	
465.20000	-0.1131	
465.40000	-0.1128	
465.60000	-0.1129	
465.80000	-0.1128	
466.00000	-0.1129	
466.20000	-0.1129	
466.40000	-0.1126	
466.60000	-0.1126	
466.80000	-0.1123	
467.00000	-0.1122	
467.20000	-0.1122	
467.40000	-0.1120	
467.60000	-0.1117	
467.80000	-0.1118	
468.00000	-0.1118	
468.20000	-0.1112	
468.40000	-0.1112	
468.60000	-0.1115	
468.80000	-0.1111	
469.00000	-0.1111	
469.20000	-0.1111	
469.40000	-0.1106	
469.60000	-0.1102	
469.80000	-0.1105	
470.00000	-0.1108	
470.20000	-0.1103	
470.40000	-0.1103	
470.60000	-0.1102	
470.80000	-0.1099	
471.00000	-0.1097	
471.20000	-0.1091	
471.40000	-0.1094	
471.60000	-0.1089	
471.80000	-0.1085	
472.00000	-0.1080	
472.20000	-0.1076	
472.40000	-0.1079	
472.60000	-0.1076	
472.80000	-0.1073	
473.00000	-0.1070	
473.20000	-0.1074	
473.40000	-0.1068	
473.60000	-0.1068	
473.80000	-0.1070	
474.00000	-0.1074	
474.20000	-0.1076	
474.40000	-0.1077	
474.60000	-0.1080	
474.80000	-0.1083	
475.00000	-0.1085	
475.20000	-0.1088	
475.40000	-0.1089	
475.60000	-0.1094	
475.80000	-0.1096	
476.00000	-0.1100	
476.20000	-0.1102	
476.40000	-0.1103	
476.60000	-0.1108	
476.80000	-0.1109	
477.00000	-0.1111	
477.20000	-0.1115	
477.40000	-0.1120	
477.60000	-0.1125	
477.80000	-0.1126	
478.00000	-0.1131	
478.20000	-0.1132	
478.40000	-0.1137	
478.60000	-0.1138	
478.80000	-0.1138	
479.00000	-0.1143	
479.20000	-0.1144	
479.40000	-0.1146	
479.60000	-0.1149	
479.80000	-0.1147	
480.00000	-0.1151	
480.20000	-0.1155	
480.40000	-0.1155	
480.60000	-0.1152	
480.80000	-0.1154	
481.00000	-0.1152	
481.20000	-0.1151	
481.40000	-0.1149	
481.60000	-0.1151	
481.80000	-0.1147	
482.00000	-0.1144	
482.20000	-0.1143	
482.40000	-0.1138	
482.60000	-0.1134	
482.80000	-0.1132	
483.00000	-0.1129	
483.20000	-0.1128	
483.40000	-0.1125	
483.60000	-0.1123	
483.80000	-0.1117	
484.00000	-0.1115	
484.20000	-0.1111	
484.40000	-0.1109	
484.60000	-0.1106	
484.80000	-0.1106	
485.00000	-0.1103	
485.20000	-0.1099	
485.40000	-0.1097	
485.60000	-0.1091	
485.80000	-0.1086	
486.00000	-0.1083	
486.20000	-0.1079	
486.40000	-0.1079	
486.60000	-0.1073	
486.80000	-0.1070	
487.00000	-0.1068	
487.20000	-0.1064	
487.40000	-0.1059	
487.60000	-0.1056	
487.80000	-0.1054	
488.00000	-0.1048	
488.20000	-0.1047	
488.40000	-0.1044	
488.60000	-0.1039	
488.80000	-0.1038	
489.00000	-0.1033	
489.20000	-0.1030	
489.40000	-0.1025	
489.60000	-0.1022	
489.80000	-0.1018	
490.00000	-0.1012	
490.20000	-0.1010	
490.40000	-0.1003	
490.60000	-0.0999	
490.80000	-0.1001	
491.00000	-0.0993	
491.20000	-0.0992	
491.40000	-0.0987	
491.60000	-0.0984	
491.80000	-0.0983	
492.00000	-0.0978	
492.20000	-0.0974	
492.40000	-0.0974	
492.60000	-0.0972	
492.80000	-0.0964	
493.00000	-0.0957	
493.20000	-0.0954	
493.40000	-0.0951	
493.60000	-0.0943	
493.80000	-0.0941	
494.00000	-0.0938	
494.20000	-0.0937	
494.40000	-0.0932	
494.60000	-0.0931	
494.80000	-0.0931	
495.00000	-0.0926	
495.20000	-0.0920	
495.40000	-0.0919	
495.60000	-0.0916	
495.80000	-0.0911	
496.00000	-0.0909	
496.20000	-0.0906	
496.40000	-0.0906	
496.60000	-0.0905	
496.80000	-0.0905	
497.00000	-0.0903	
497.20000	-0.0896	
497.40000	-0.0894	
497.60000	-0.0891	
497.80000	-0.0885	
498.00000	-0.0883	
498.20000	-0.0879	
498.40000	-0.0874	
498.60000	-0.0870	
498.80000	-0.0867	
499.00000	-0.0862	
499.20000	-0.0858	
499.40000	-0.0854	
499.60000	-0.0848	
499.80000	-0.0844	
500.00000	-0.0839	
500.20000	-0.0833	
500.40000	-0.0826	
500.60000	-0.0826	
500.80000	-0.0822	
501.00000	-0.0815	
501.20000	-0.0815	
501.40000	-0.0812	
501.60000	-0.0809	
501.80000	-0.0803	
502.00000	-0.0803	
502.20000	-0.0797	
502.40000	-0.0792	
502.60000	-0.0784	
502.80000	-0.0780	
503.00000	-0.0772	
503.20000	-0.0769	
503.40000	-0.0761	
503.60000	-0.0760	
503.80000	-0.0755	
504.00000	-0.0746	
504.20000	-0.0746	
504.40000	-0.0737	
504.60000	-0.0734	
504.80000	-0.0728	
505.00000	-0.0722	
505.20000	-0.0717	
505.40000	-0.0714	
505.60000	-0.0708	
505.80000	-0.0706	
506.00000	-0.0702	
506.20000	-0.0697	
506.40000	-0.0693	
506.60000	-0.0687	
506.80000	-0.0682	
507.00000	-0.0681	
507.20000	-0.0674	
507.40000	-0.0670	
507.60000	-0.0665	
507.80000	-0.0661	
508.00000	-0.0659	
508.20000	-0.0656	
508.40000	-0.0652	
508.60000	-0.0652	
508.80000	-0.0648	
509.00000	-0.0642	
509.20000	-0.0641	
509.40000	-0.0639	
509.60000	-0.0633	
509.80000	-0.0632	
510.00000	-0.0624	
510.20000	-0.0621	
510.40000	-0.0621	
510.60000	-0.0616	
510.80000	-0.0612	
511.00000	-0.0612	
511.20000	-0.0609	
511.40000	-0.0607	
511.60000	-0.0603	
511.80000	-0.0600	
512.00000	-0.0598	
512.20000	-0.0598	
512.40000	-0.0594	
512.60000	-0.0591	
512.80000	-0.0592	
513.00000	-0.0591	
513.20000	-0.0589	
513.40000	-0.0591	
513.60000	-0.0587	
513.80000	-0.0587	
514.00000	-0.0587	
514.20000	-0.0580	
514.40000	-0.0581	
514.60000	-0.0580	
514.80000	-0.0574	
515.00000	-0.0574	
515.20000	-0.0568	
515.40000	-0.0565	
515.60000	-0.0558	
515.80000	-0.0558	
516.00000	-0.0554	
516.20000	-0.0552	
516.40000	-0.0549	
516.60000	-0.0545	
516.80000	-0.0545	
517.00000	-0.0539	
517.20000	-0.0536	
517.40000	-0.0537	
517.60000	-0.0534	
517.80000	-0.0533	
518.00000	-0.0531	
518.20000	-0.0528	
518.40000	-0.0526	
518.60000	-0.0523	
518.80000	-0.0519	
519.00000	-0.0517	
519.20000	-0.0513	
519.40000	-0.0508	
519.60000	-0.0505	
519.80000	-0.0502	
520.00000	-0.0497	
520.20000	-0.0493	
520.40000	-0.0490	
520.60000	-0.0485	
520.80000	-0.0482	
521.00000	-0.0476	
521.20000	-0.0473	
521.40000	-0.0468	
521.60000	-0.0468	
521.80000	-0.0461	
522.00000	-0.0453	
522.20000	-0.0453	
522.40000	-0.0450	
522.60000	-0.0443	
522.80000	-0.0438	
523.00000	-0.0436	
523.20000	-0.0432	
523.40000	-0.0427	
523.60000	-0.0426	
523.80000	-0.0424	
524.00000	-0.0421	
524.20000	-0.0418	
524.40000	-0.0417	
524.60000	-0.0412	
524.80000	-0.0410	
525.00000	-0.0410	
525.20000	-0.0404	
525.40000	-0.0404	
525.60000	-0.0403	
525.80000	-0.0401	
526.00000	-0.0401	
526.20000	-0.0395	
526.40000	-0.0394	
526.60000	-0.0394	
526.80000	-0.0391	
527.00000	-0.0388	
527.20000	-0.0388	
527.40000	-0.0385	
527.60000	-0.0386	
527.80000	-0.0381	
528.00000	-0.0381	
528.20000	-0.0378	
528.40000	-0.0380	
528.60000	-0.0375	
528.80000	-0.0375	
529.00000	-0.0377	
529.20000	-0.0375	
529.40000	-0.0372	
529.60000	-0.0375	
529.80000	-0.0374	
530.00000	-0.0375	
530.20000	-0.0377	
530.40000	-0.0378	
530.60000	-0.0377	
530.80000	-0.0375	
531.00000	-0.0375	
531.20000	-0.0374	
531.40000	-0.0369	
531.60000	-0.0366	
531.80000	-0.0362	
532.00000	-0.0357	
532.20000	-0.0357	
532.40000	-0.0349	
532.60000	-0.0345	
532.80000	-0.0340	
533.00000	-0.0337	
533.20000	-0.0334	
533.40000	-0.0333	
533.60000	-0.0333	
533.80000	-0.0328	
534.00000	-0.0325	
534.20000	-0.0328	
534.40000	-0.0328	
534.60000	-0.0331	
534.80000	-0.0331	
535.00000	-0.0333	
535.20000	-0.0331	
535.40000	-0.0331	
535.60000	-0.0331	
535.80000	-0.0327	
536.00000	-0.0328	
536.20000	-0.0323	
536.40000	-0.0322	
536.60000	-0.0322	
536.80000	-0.0327	
537.00000	-0.0327	
537.20000	-0.0325	
537.40000	-0.0327	
537.60000	-0.0323	
537.80000	-0.0323	
538.00000	-0.0323	
538.20000	-0.0325	
538.40000	-0.0322	
538.60000	-0.0322	
538.80000	-0.0322	
539.00000	-0.0323	
539.20000	-0.0322	
539.40000	-0.0320	
539.60000	-0.0320	
539.80000	-0.0320	
540.00000	-0.0319	
540.20000	-0.0320	
540.40000	-0.0316	
540.60000	-0.0316	
540.80000	-0.0314	
541.00000	-0.0314	
541.20000	-0.0316	
541.40000	-0.0316	
541.60000	-0.0316	
541.80000	-0.0314	
542.00000	-0.0319	
542.20000	-0.0320	
542.40000	-0.0319	
542.60000	-0.0319	
542.80000	-0.0316	
543.00000	-0.0314	
543.20000	-0.0316	
543.40000	-0.0316	
543.60000	-0.0316	
543.80000	-0.0311	
544.00000	-0.0314	
544.20000	-0.0314	
544.40000	-0.0316	
544.60000	-0.0316	
544.80000	-0.0320	
545.00000	-0.0319	
545.20000	-0.0319	
545.40000	-0.0320	
545.60000	-0.0320	
545.80000	-0.0319	
546.00000	-0.0322	
546.20000	-0.0325	
546.40000	-0.0323	
546.60000	-0.0327	
546.80000	-0.0331	
547.00000	-0.0328	
547.20000	-0.0331	
547.40000	-0.0328	
547.60000	-0.0328	
547.80000	-0.0325	
548.00000	-0.0323	
548.20000	-0.0320	
548.40000	-0.0317	
548.60000	-0.0314	
548.80000	-0.0316	
549.00000	-0.0314	
549.20000	-0.0311	
549.40000	-0.0313	
549.60000	-0.0311	
549.80000	-0.0310	
550.00000	-0.0311	
550.20000	-0.0311	
550.40000	-0.0313	
550.60000	-0.0316	
550.80000	-0.0313	
551.00000	-0.0316	
551.20000	-0.0319	
551.40000	-0.0319	
551.60000	-0.0320	
551.80000	-0.0320	
552.00000	-0.0320	
552.20000	-0.0320	
552.40000	-0.0322	
552.60000	-0.0325	
552.80000	-0.0322	
553.00000	-0.0322	
553.20000	-0.0320	
553.40000	-0.0322	
553.60000	-0.0322	
553.80000	-0.0322	
554.00000	-0.0322	
554.20000	-0.0322	
554.40000	-0.0322	
554.60000	-0.0320	
554.80000	-0.0322	
555.00000	-0.0322	
555.20000	-0.0322	
555.40000	-0.0319	
555.60000	-0.0320	
555.80000	-0.0322	
556.00000	-0.0322	
556.20000	-0.0319	
556.40000	-0.0319	
556.60000	-0.0319	
556.80000	-0.0319	
557.00000	-0.0316	
557.20000	-0.0311	
557.40000	-0.0305	
557.60000	-0.0301	
557.80000	-0.0293	
558.00000	-0.0288	
558.20000	-0.0282	
558.40000	-0.0276	
558.60000	-0.0270	
558.80000	-0.0262	
559.00000	-0.0258	
559.20000	-0.0252	
559.40000	-0.0247	
559.60000	-0.0237	
559.80000	-0.0229	
560.00000	-0.0221	
560.20000	-0.0214	
560.40000	-0.0208	
560.60000	-0.0197	
560.80000	-0.0186	
561.00000	-0.0177	
561.20000	-0.0166	
561.40000	-0.0151	
561.60000	-0.0137	
561.80000	-0.0122	
562.00000	-0.0105	
562.20000	-0.0089	
562.40000	-0.0070	
562.60000	-0.0055	
562.80000	-0.0031	
563.00000	-0.0012	
563.20000	 0.0015	
563.40000	 0.0046	
563.60000	 0.0078	
563.80000	 0.0117	
564.00000	 0.0159	
564.20000	 0.0201	
564.40000	 0.0249	
564.60000	 0.0301	
564.80000	 0.0354	
565.00000	 0.0404	
565.20000	 0.0462	
565.40000	 0.0519	
565.60000	 0.0578	
565.80000	 0.0642	
566.00000	 0.0713	
566.20000	 0.0780	
566.40000	 0.0854	
566.60000	 0.0928	
566.80000	 0.1009	
567.00000	 0.1093	
567.20000	 0.1176	
567.40000	 0.1259	
567.60000	 0.1341	
567.80000	 0.1425	
568.00000	 0.1508	
568.20000	 0.1587	
568.40000	 0.1669	
568.60000	 0.1750	
568.80000	 0.1825	
569.00000	 0.1895	
569.20000	 0.1971	
569.40000	 0.2049	
569.60000	 0.2121	
569.80000	 0.2185	
570.00000	 0.2254	
570.20000	 0.2315	
570.40000	 0.2374	
570.60000	 0.2429	
570.80000	 0.2477	
571.00000	 0.2519	
571.20000	 0.2559	
571.40000	 0.2589	
571.60000	 0.2614	
571.80000	 0.2637	
572.00000	 0.2649	
572.20000	 0.2655	
572.40000	 0.2654	
572.60000	 0.2646	
572.80000	 0.2634	
573.00000	 0.2612	
573.20000	 0.2580	
573.40000	 0.2527	
573.60000	 0.2455	
573.80000	 0.2353	
574.00000	 0.2223	
574.20000	 0.2061	
574.40000	 0.1869	
574.60000	 0.1636	
574.80000	 0.1353	
575.00000	 0.1021	
575.20000	 0.0641	
575.40000	 0.0214	
575.60000	-0.0256	
575.80000	-0.0769	
576.00000	-0.1320	
576.20000	-0.1886	
576.40000	-0.2467	
576.60000	-0.3061	
576.80000	-0.3659	
577.00000	-0.4254	
577.20000	-0.4854	
577.40000	-0.5457	
577.60000	-0.6061	
577.80000	-0.6674	
578.00000	-0.7298	
578.20000	-0.7927	
578.40000	-0.8563	
578.60000	-0.9210	
578.80000	-0.9869	
579.00000	-1.0515	
579.20000	-1.1154	
579.40000	-1.1765	
579.60000	-1.2337	
579.80000	-1.2851	
580.00000	-1.3309	
580.20000	-1.3693	
580.40000	-1.4000	
580.60000	-1.4235	
580.80000	-1.4401	
581.00000	-1.4502	
581.20000	-1.4542	
581.40000	-1.4526	
581.60000	-1.4462	
581.80000	-1.4354	
582.00000	-1.4204	
582.20000	-1.4024	
582.40000	-1.3821	
582.60000	-1.3591	
582.80000	-1.3342	
583.00000	-1.3072	
583.20000	-1.2785	
583.40000	-1.2483	
583.60000	-1.2163	
583.80000	-1.1830	
584.00000	-1.1490	
584.20000	-1.1137	
584.40000	-1.0785	
584.60000	-1.0434	
584.80000	-1.0080	
585.00000	-0.9732	
585.20000	-0.9390	
585.40000	-0.9053	
585.60000	-0.8731	
585.80000	-0.8412	
586.00000	-0.8105	
586.20000	-0.7812	
586.40000	-0.7533	
586.60000	-0.7269	
586.80000	-0.7016	
587.00000	-0.6784	
587.20000	-0.6558	
587.40000	-0.6345	
587.60000	-0.6143	
587.80000	-0.5952	
588.00000	-0.5775	
588.20000	-0.5608	
588.40000	-0.5444	
588.60000	-0.5287	
588.80000	-0.5136	
589.00000	-0.4990	
589.20000	-0.4851	
589.40000	-0.4712	
589.60000	-0.4581	
589.80000	-0.4448	
590.00000	-0.4314	
590.20000	-0.4182	
590.40000	-0.4050	
590.60000	-0.3911	
590.80000	-0.3775	
591.00000	-0.3636	
591.20000	-0.3496	
591.40000	-0.3354	
591.60000	-0.3210	
591.80000	-0.3072	
592.00000	-0.2927	
592.20000	-0.2783	
592.40000	-0.2638	
592.60000	-0.2498	
592.80000	-0.2354	
593.00000	-0.2208	
593.20000	-0.2063	
593.40000	-0.1921	
593.60000	-0.1773	
593.80000	-0.1628	
594.00000	-0.1482	
594.20000	-0.1335	
594.40000	-0.1190	
594.60000	-0.1047	
594.80000	-0.0903	
595.00000	-0.0760	
595.20000	-0.0624	
595.40000	-0.0490	
595.60000	-0.0362	
595.80000	-0.0238	
596.00000	-0.0121	
596.20000	-0.0006	
596.40000	 0.0104	
596.60000	 0.0211	
596.80000	 0.0313	
597.00000	 0.0414	
597.20000	 0.0513	
597.40000	 0.0612	
597.60000	 0.0710	
597.80000	 0.0804	
598.00000	 0.0905	
598.20000	 0.0999	
598.40000	 0.1096	
598.60000	 0.1190	
598.80000	 0.1285	
599.00000	 0.1373	
599.20000	 0.1462	
599.40000	 0.1544	
599.60000	 0.1631	
599.80000	 0.1707	
600.00000	 0.1782	
600.20000	 0.1855	
600.40000	 0.1923	
600.60000	 0.1990	
600.80000	 0.2055	
601.00000	 0.2112	
601.20000	 0.2168	
601.40000	 0.2228	
601.60000	 0.2284	
601.80000	 0.2342	
602.00000	 0.2391	
602.20000	 0.2446	
602.40000	 0.2496	
602.60000	 0.2550	
602.80000	 0.2609	
603.00000	 0.2663	
603.20000	 0.2710	
603.40000	 0.2763	
603.60000	 0.2817	
603.80000	 0.2866	
604.00000	 0.2917	
604.20000	 0.2965	
604.40000	 0.3012	
604.60000	 0.3055	
604.80000	 0.3093	
605.00000	 0.3136	
605.20000	 0.3178	
605.40000	 0.3215	
605.60000	 0.3252	
605.80000	 0.3287	
606.00000	 0.3322	
606.20000	 0.3352	
606.40000	 0.3383	
606.60000	 0.3413	
606.80000	 0.3445	
607.00000	 0.3474	
607.20000	 0.3510	
607.40000	 0.3534	
607.60000	 0.3560	
607.80000	 0.3589	
608.00000	 0.3612	
608.20000	 0.3636	
608.40000	 0.3659	
608.60000	 0.3682	
608.80000	 0.3700	
609.00000	 0.3714	
609.20000	 0.3731	
609.40000	 0.3745	
609.60000	 0.3755	
609.80000	 0.3767	
610.00000	 0.3773	
610.20000	 0.3781	
610.40000	 0.3793	
610.60000	 0.3801	
610.80000	 0.3809	
611.00000	 0.3815	
611.20000	 0.3827	
611.40000	 0.3836	
611.60000	 0.3851	
611.80000	 0.3860	
612.00000	 0.3874	
612.20000	 0.3885	
612.40000	 0.3899	
612.60000	 0.3914	
612.80000	 0.3925	
613.00000	 0.3935	
613.20000	 0.3949	
613.40000	 0.3958	
613.60000	 0.3972	
613.80000	 0.3979	
614.00000	 0.3992	
614.20000	 0.4004	
614.40000	 0.4012	
614.60000	 0.4019	
614.80000	 0.4022	
615.00000	 0.4030	
615.20000	 0.4033	
615.40000	 0.4031	
615.60000	 0.4031	
615.80000	 0.4030	
616.00000	 0.4024	
616.20000	 0.4019	
616.40000	 0.4010	
616.60000	 0.4001	
616.80000	 0.3986	
617.00000	 0.3970	
617.20000	 0.3951	
617.40000	 0.3928	
617.60000	 0.3905	
617.80000	 0.3877	
618.00000	 0.3850	
618.20000	 0.3818	
618.40000	 0.3789	
618.60000	 0.3758	
618.80000	 0.3725	
619.00000	 0.3691	
619.20000	 0.3658	
619.40000	 0.3619	
619.60000	 0.3586	
619.80000	 0.3552	
620.00000	 0.3511	
620.20000	 0.3468	
620.40000	 0.3432	
620.60000	 0.3392	
620.80000	 0.3351	
621.00000	 0.3311	
621.20000	 0.3273	
621.40000	 0.3230	
621.60000	 0.3188	
621.80000	 0.3151	
622.00000	 0.3110	
622.20000	 0.3070	
622.40000	 0.3027	
622.60000	 0.2988	
622.80000	 0.2946	
623.00000	 0.2905	
623.20000	 0.2864	
623.40000	 0.2827	
623.60000	 0.2789	
623.80000	 0.2748	
624.00000	 0.2708	
624.20000	 0.2669	
624.40000	 0.2629	
624.60000	 0.2589	
624.80000	 0.2551	
625.00000	 0.2510	
625.20000	 0.2472	
625.40000	 0.2432	
625.60000	 0.2393	
625.80000	 0.2356	
626.00000	 0.2315	
626.20000	 0.2281	
626.40000	 0.2245	
626.60000	 0.2206	
626.80000	 0.2173	
627.00000	 0.2138	
627.20000	 0.2104	
627.40000	 0.2069	
627.60000	 0.2032	
627.80000	 0.1997	
628.00000	 0.1962	
628.20000	 0.1929	
628.40000	 0.1894	
628.60000	 0.1863	
628.80000	 0.1834	
629.00000	 0.1799	
629.20000	 0.1765	
629.40000	 0.1738	
629.60000	 0.1703	
629.80000	 0.1674	
630.00000	 0.1643	
630.20000	 0.1610	
630.40000	 0.1576	
630.60000	 0.1550	
630.80000	 0.1520	
631.00000	 0.1494	
631.20000	 0.1468	
631.40000	 0.1440	
631.60000	 0.1413	
631.80000	 0.1385	
632.00000	 0.1360	
632.20000	 0.1335	
632.40000	 0.1309	
632.60000	 0.1286	
632.80000	 0.1259	
633.00000	 0.1236	
633.20000	 0.1213	
633.40000	 0.1190	
633.60000	 0.1169	
633.80000	 0.1146	
634.00000	 0.1122	
634.20000	 0.1100	
634.40000	 0.1074	
634.60000	 0.1051	
634.80000	 0.1030	
635.00000	 0.1009	
635.20000	 0.0989	
635.40000	 0.0969	
635.60000	 0.0946	
635.80000	 0.0926	
636.00000	 0.0908	
636.20000	 0.0893	
636.40000	 0.0871	
636.60000	 0.0851	
636.80000	 0.0833	
637.00000	 0.0813	
637.20000	 0.0801	
637.40000	 0.0781	
637.60000	 0.0764	
637.80000	 0.0746	
638.00000	 0.0728	
638.20000	 0.0714	
638.40000	 0.0697	
638.60000	 0.0684	
638.80000	 0.0670	
639.00000	 0.0656	
639.20000	 0.0639	
639.40000	 0.0623	
639.60000	 0.0609	
639.80000	 0.0594	
640.00000	 0.0577	
640.20000	 0.0563	
640.40000	 0.0549	
640.60000	 0.0534	
640.80000	 0.0519	
641.00000	 0.0507	
641.20000	 0.0491	
641.40000	 0.0479	
641.60000	 0.0462	
641.80000	 0.0447	
642.00000	 0.0432	
642.20000	 0.0418	
642.40000	 0.0401	
642.60000	 0.0389	
642.80000	 0.0374	
643.00000	 0.0362	
643.20000	 0.0351	
643.40000	 0.0333	
643.60000	 0.0317	
643.80000	 0.0311	
644.00000	 0.0294	
644.20000	 0.0276	
644.40000	 0.0267	
644.60000	 0.0255	
644.80000	 0.0238	
645.00000	 0.0229	
645.20000	 0.0215	
645.40000	 0.0206	
645.60000	 0.0191	
645.80000	 0.0180	
646.00000	 0.0166	
646.20000	 0.0153	
646.40000	 0.0143	
646.60000	 0.0131	
646.80000	 0.0117	
647.00000	 0.0104	
647.20000	 0.0096	
647.40000	 0.0084	
647.60000	 0.0073	
647.80000	 0.0063	
648.00000	 0.0056	
648.20000	 0.0044	
648.40000	 0.0035	
648.60000	 0.0026	
648.80000	 0.0020	
649.00000	 0.0012	
649.20000	 0.0003	
649.40000	-0.0003	
649.60000	-0.0014	
649.80000	-0.0020	
650.00000	-0.0027	
650.20000	-0.0037	
650.40000	-0.0044	
650.60000	-0.0052	
650.80000	-0.0064	
651.00000	-0.0070	
651.20000	-0.0081	
651.40000	-0.0089	
651.60000	-0.0099	
651.80000	-0.0102	
652.00000	-0.0110	
652.20000	-0.0119	
652.40000	-0.0122	
652.60000	-0.0127	
652.80000	-0.0130	
653.00000	-0.0136	
653.20000	-0.0142	
653.40000	-0.0150	
653.60000	-0.0156	
653.80000	-0.0162	
654.00000	-0.0163	
654.20000	-0.0168	
654.40000	-0.0174	
654.60000	-0.0177	
654.80000	-0.0185	
655.00000	-0.0189	
655.20000	-0.0192	
655.40000	-0.0197	
655.60000	-0.0200	
655.80000	-0.0206	
656.00000	-0.0214	
656.20000	-0.0218	
656.40000	-0.0221	
656.60000	-0.0227	
656.80000	-0.0232	
657.00000	-0.0235	
657.20000	-0.0238	
657.40000	-0.0247	
657.60000	-0.0252	
657.80000	-0.0255	
658.00000	-0.0259	
658.20000	-0.0267	
658.40000	-0.0272	
658.60000	-0.0279	
658.80000	-0.0285	
659.00000	-0.0290	
659.20000	-0.0298	
659.40000	-0.0304	
659.60000	-0.0302	
659.80000	-0.0311	
660.00000	-0.0314	
660.20000	-0.0319	
660.40000	-0.0320	
660.60000	-0.0327	
660.80000	-0.0337	
661.00000	-0.0342	
661.20000	-0.0345	
661.40000	-0.0356	
661.60000	-0.0356	
661.80000	-0.0362	
662.00000	-0.0365	
662.20000	-0.0374	
662.40000	-0.0378	
662.60000	-0.0381	
662.80000	-0.0388	
663.00000	-0.0395	
663.20000	-0.0401	
663.40000	-0.0407	
663.60000	-0.0415	
663.80000	-0.0420	
664.00000	-0.0424	
664.20000	-0.0427	
664.40000	-0.0433	
664.60000	-0.0433	
664.80000	-0.0436	
665.00000	-0.0439	
665.20000	-0.0446	
665.40000	-0.0449	
665.60000	-0.0450	
665.80000	-0.0452	
666.00000	-0.0455	
666.20000	-0.0458	
666.40000	-0.0461	
666.60000	-0.0465	
666.80000	-0.0467	
667.00000	-0.0471	
667.20000	-0.0476	
667.40000	-0.0476	
667.60000	-0.0481	
667.80000	-0.0485	
668.00000	-0.0487	
668.20000	-0.0491	
668.40000	-0.0491	
668.60000	-0.0496	
668.80000	-0.0496	
669.00000	-0.0500	
669.20000	-0.0500	
669.40000	-0.0493	
669.60000	-0.0497	
669.80000	-0.0500	
670.00000	-0.0497	
670.20000	-0.0504	
670.40000	-0.0504	
670.60000	-0.0504	
670.80000	-0.0507	
671.00000	-0.0508	
671.20000	-0.0507	
671.40000	-0.0507	
671.60000	-0.0507	
671.80000	-0.0505	
672.00000	-0.0507	
672.20000	-0.0508	
672.40000	-0.0510	
672.60000	-0.0508	
672.80000	-0.0511	
673.00000	-0.0513	
673.20000	-0.0513	
673.40000	-0.0514	
673.60000	-0.0517	
673.80000	-0.0517	
674.00000	-0.0522	
674.20000	-0.0523	
674.40000	-0.0525	
674.60000	-0.0526	
674.80000	-0.0526	
675.00000	-0.0526	
675.20000	-0.0529	
675.40000	-0.0534	
675.60000	-0.0537	
675.80000	-0.0539	
676.00000	-0.0546	
676.20000	-0.0545	
676.40000	-0.0546	
676.60000	-0.0549	
676.80000	-0.0554	
677.00000	-0.0552	
677.20000	-0.0557	
677.40000	-0.0557	
677.60000	-0.0565	
677.80000	-0.0566	
678.00000	-0.0571	
678.20000	-0.0574	
678.40000	-0.0574	
678.60000	-0.0578	
678.80000	-0.0584	
679.00000	-0.0589	
679.20000	-0.0591	
679.40000	-0.0591	
679.60000	-0.0595	
679.80000	-0.0598	
680.00000	-0.0601	
680.20000	-0.0609	
680.40000	-0.0613	
680.60000	-0.0615	
680.80000	-0.0616	
681.00000	-0.0621	
681.20000	-0.0621	
681.40000	-0.0624	
681.60000	-0.0627	
681.80000	-0.0624	
682.00000	-0.0630	
682.20000	-0.0630	
682.40000	-0.0630	
682.60000	-0.0630	
682.80000	-0.0630	
683.00000	-0.0635	
683.20000	-0.0633	
683.40000	-0.0636	
683.60000	-0.0636	
683.80000	-0.0635	
684.00000	-0.0636	
684.20000	-0.0642	
684.40000	-0.0642	
684.60000	-0.0644	
684.80000	-0.0648	
685.00000	-0.0648	
685.20000	-0.0652	
685.40000	-0.0648	
685.60000	-0.0650	
685.80000	-0.0652	
686.00000	-0.0650	
686.20000	-0.0650	
686.40000	-0.0652	
686.60000	-0.0653	
686.80000	-0.0655	
687.00000	-0.0652	
687.20000	-0.0648	
687.40000	-0.0648	
687.60000	-0.0648	
687.80000	-0.0644	
688.00000	-0.0644	
688.20000	-0.0645	
688.40000	-0.0645	
688.60000	-0.0641	
688.80000	-0.0642	
689.00000	-0.0641	
689.20000	-0.0641	
689.40000	-0.0641	
689.60000	-0.0639	
689.80000	-0.0638	
690.00000	-0.0639	
690.20000	-0.0638	
690.40000	-0.0638	
690.60000	-0.0639	
690.80000	-0.0641	
691.00000	-0.0641	
691.20000	-0.0642	
691.40000	-0.0644	
691.60000	-0.0648	
691.80000	-0.0648	
692.00000	-0.0652	
692.20000	-0.0652	
692.40000	-0.0655	
692.60000	-0.0656	
692.80000	-0.0656	
693.00000	-0.0656	
693.20000	-0.0658	
693.40000	-0.0659	
693.60000	-0.0659	
693.80000	-0.0658	
694.00000	-0.0661	
694.20000	-0.0664	
694.40000	-0.0665	
694.60000	-0.0671	
694.80000	-0.0673	
695.00000	-0.0671	
695.20000	-0.0673	
695.40000	-0.0674	
695.60000	-0.0676	
695.80000	-0.0676	
696.00000	-0.0679	
696.20000	-0.0685	
696.40000	-0.0685	
696.60000	-0.0685	
696.80000	-0.0693	
697.00000	-0.0694	
697.20000	-0.0694	
697.40000	-0.0697	
697.60000	-0.0693	
697.80000	-0.0694	
698.00000	-0.0697	
698.20000	-0.0696	
698.40000	-0.0697	
698.60000	-0.0697	
698.80000	-0.0697	
699.00000	-0.0697	
699.20000	-0.0694	
699.40000	-0.0696	
699.60000	-0.0694	
699.80000	-0.0691	
700.00000	-0.0693	
700.20000	-0.0691	
700.40000	-0.0691	
700.60000	-0.0691	
700.80000	-0.0693	
701.00000	-0.0693	
701.20000	-0.0696	
701.40000	-0.0697	
701.60000	-0.0697	
701.80000	-0.0697	
702.00000	-0.0699	
702.20000	-0.0699	
702.40000	-0.0694	
702.60000	-0.0693	
702.80000	-0.0687	
703.00000	-0.0684	
703.20000	-0.0684	
703.40000	-0.0684	
703.60000	-0.0684	
703.80000	-0.0685	
704.00000	-0.0681	
704.20000	-0.0682	
704.40000	-0.0677	
704.60000	-0.0677	
704.80000	-0.0676	
705.00000	-0.0673	
705.20000	-0.0667	
705.40000	-0.0667	
705.60000	-0.0665	
705.80000	-0.0661	
706.00000	-0.0661	
706.20000	-0.0658	
706.40000	-0.0659	
706.60000	-0.0658	
706.80000	-0.0656	
707.00000	-0.0656	
707.20000	-0.0656	
707.40000	-0.0653	
707.60000	-0.0653	
707.80000	-0.0650	
708.00000	-0.0653	
708.20000	-0.0652	
708.40000	-0.0652	
708.60000	-0.0655	
708.80000	-0.0653	
709.00000	-0.0655	
709.20000	-0.0656	
709.40000	-0.0656	
709.60000	-0.0653	
709.80000	-0.0655	
710.00000	-0.0656	
710.20000	-0.0653	
710.40000	-0.0652	
710.60000	-0.0653	
710.80000	-0.0652	
711.00000	-0.0652	
711.20000	-0.0652	
711.40000	-0.0650	
711.60000	-0.0652	
711.80000	-0.0655	
712.00000	-0.0652	
712.20000	-0.0655	
712.40000	-0.0656	
712.60000	-0.0655	
712.80000	-0.0655	
713.00000	-0.0656	
713.20000	-0.0655	
713.40000	-0.0656	
713.60000	-0.0658	
713.80000	-0.0658	
714.00000	-0.0656	
714.20000	-0.0658	
714.40000	-0.0658	
714.60000	-0.0656	
714.80000	-0.0652	
715.00000	-0.0653	
715.20000	-0.0652	
715.40000	-0.0648	
715.60000	-0.0648	
715.80000	-0.0642	
716.00000	-0.0644	
716.20000	-0.0639	
716.40000	-0.0638	
716.60000	-0.0639	
716.80000	-0.0635	
717.00000	-0.0635	
717.20000	-0.0632	
717.40000	-0.0632	
717.60000	-0.0635	
717.80000	-0.0636	
718.00000	-0.0633	
718.20000	-0.0635	
718.40000	-0.0632	
718.60000	-0.0627	
718.80000	-0.0627	
719.00000	-0.0623	
719.20000	-0.0618	
719.40000	-0.0615	
719.60000	-0.0609	
719.80000	-0.0606	
720.00000	-0.0603	
720.20000	-0.0601	
720.40000	-0.0598	
720.60000	-0.0592	
720.80000	-0.0592	
721.00000	-0.0589	
721.20000	-0.0584	
721.40000	-0.0577	
721.60000	-0.0575	
721.80000	-0.0571	
722.00000	-0.0568	
722.20000	-0.0565	
722.40000	-0.0565	
722.60000	-0.0558	
722.80000	-0.0557	
723.00000	-0.0558	
723.20000	-0.0551	
723.40000	-0.0546	
723.60000	-0.0546	
723.80000	-0.0545	
724.00000	-0.0540	
724.20000	-0.0539	
724.40000	-0.0540	
724.60000	-0.0536	
724.80000	-0.0536	
725.00000	-0.0533	
725.20000	-0.0533	
725.40000	-0.0534	
725.60000	-0.0533	
725.80000	-0.0533	
726.00000	-0.0529	
726.20000	-0.0529	
726.40000	-0.0528	
726.60000	-0.0523	
726.80000	-0.0525	
727.00000	-0.0519	
727.20000	-0.0522	
727.40000	-0.0523	
727.60000	-0.0519	
727.80000	-0.0519	
728.00000	-0.0525	
728.20000	-0.0523	
728.40000	-0.0522	
728.60000	-0.0522	
728.80000	-0.0519	
729.00000	-0.0517	
729.20000	-0.0514	
729.40000	-0.0516	
729.60000	-0.0514	
729.80000	-0.0513	
730.00000	-0.0516	
730.20000	-0.0517	
730.40000	-0.0519	
730.60000	-0.0514	
730.80000	-0.0511	
731.00000	-0.0511	
731.20000	-0.0507	
731.40000	-0.0502	
731.60000	-0.0500	
731.80000	-0.0497	
732.00000	-0.0496	
732.20000	-0.0493	
732.40000	-0.0490	
732.60000	-0.0487	
732.80000	-0.0487	
733.00000	-0.0482	
733.20000	-0.0479	
733.40000	-0.0475	
733.60000	-0.0473	
733.80000	-0.0468	
734.00000	-0.0468	
734.20000	-0.0467	
734.40000	-0.0467	
734.60000	-0.0467	
734.80000	-0.0465	
735.00000	-0.0461	
735.20000	-0.0459	
735.40000	-0.0455	
735.60000	-0.0455	
735.80000	-0.0449	
736.00000	-0.0444	
736.20000	-0.0441	
736.40000	-0.0438	
736.60000	-0.0436	
736.80000	-0.0432	
737.00000	-0.0429	
737.20000	-0.0426	
737.40000	-0.0424	
737.60000	-0.0418	
737.80000	-0.0415	
738.00000	-0.0415	
738.20000	-0.0415	
738.40000	-0.0407	
738.60000	-0.0407	
738.80000	-0.0404	
739.00000	-0.0401	
739.20000	-0.0400	
739.40000	-0.0401	
739.60000	-0.0398	
739.80000	-0.0389	
740.00000	-0.0386	
740.20000	-0.0385	
740.40000	-0.0381	
740.60000	-0.0381	
740.80000	-0.0377	
741.00000	-0.0377	
741.20000	-0.0375	
741.40000	-0.0372	
741.60000	-0.0374	
741.80000	-0.0368	
742.00000	-0.0368	
742.20000	-0.0365	
742.40000	-0.0363	
742.60000	-0.0363	
742.80000	-0.0360	
743.00000	-0.0359	
743.20000	-0.0359	
743.40000	-0.0359	
743.60000	-0.0356	
743.80000	-0.0354	
744.00000	-0.0352	
744.20000	-0.0354	
744.40000	-0.0352	
744.60000	-0.0352	
744.80000	-0.0352	
745.00000	-0.0348	
745.20000	-0.0348	
745.40000	-0.0348	
745.60000	-0.0348	
745.80000	-0.0348	
746.00000	-0.0349	
746.20000	-0.0349	
746.40000	-0.0348	
746.60000	-0.0354	
746.80000	-0.0352	
747.00000	-0.0356	
747.20000	-0.0352	
747.40000	-0.0354	
747.60000	-0.0352	
747.80000	-0.0349	
748.00000	-0.0348	
748.20000	-0.0346	
748.40000	-0.0346	
748.60000	-0.0346	
748.80000	-0.0343	
749.00000	-0.0340	
749.20000	-0.0340	
749.40000	-0.0337	
749.60000	-0.0334	
749.80000	-0.0333	
750.00000	-0.0331	
750.20000	-0.0327	
750.40000	-0.0325	
750.60000	-0.0323	
750.80000	-0.0322	
751.00000	-0.0322	
751.20000	-0.0322	
751.40000	-0.0320	
751.60000	-0.0319	
751.80000	-0.0317	
752.00000	-0.0314	
752.20000	-0.0313	
752.40000	-0.0310	
752.60000	-0.0307	
752.80000	-0.0301	
753.00000	-0.0301	
753.20000	-0.0299	
753.40000	-0.0296	
753.60000	-0.0294	
753.80000	-0.0291	
754.00000	-0.0290	
754.20000	-0.0288	
754.40000	-0.0285	
754.60000	-0.0282	
754.80000	-0.0282	
755.00000	-0.0278	
755.20000	-0.0275	
755.40000	-0.0272	
755.60000	-0.0269	
755.80000	-0.0267	
756.00000	-0.0259	
756.20000	-0.0259	
756.40000	-0.0255	
756.60000	-0.0253	
756.80000	-0.0252	
757.00000	-0.0249	
757.20000	-0.0247	
757.40000	-0.0247	
757.60000	-0.0243	
757.80000	-0.0241	
758.00000	-0.0243	
758.20000	-0.0240	
758.40000	-0.0238	
758.60000	-0.0238	
758.80000	-0.0237	
759.00000	-0.0235	
759.20000	-0.0240	
759.40000	-0.0235	
759.60000	-0.0235	
759.80000	-0.0230	
760.00000	-0.0233	
760.20000	-0.0232	
760.40000	-0.0230	
760.60000	-0.0230	
760.80000	-0.0230	
761.00000	-0.0230	
761.20000	-0.0229	
761.40000	-0.0227	
761.60000	-0.0229	
761.80000	-0.0227	
762.00000	-0.0226	
762.20000	-0.0227	
762.40000	-0.0226	
762.60000	-0.0224	
762.80000	-0.0229	
763.00000	-0.0229	
763.20000	-0.0224	
763.40000	-0.0227	
763.60000	-0.0230	
763.80000	-0.0227	
764.00000	-0.0227	
764.20000	-0.0224	
764.40000	-0.0226	
764.60000	-0.0224	
764.80000	-0.0220	
765.00000	-0.0218	
765.20000	-0.0217	
765.40000	-0.0215	
765.60000	-0.0212	
765.80000	-0.0211	
766.00000	-0.0206	
766.20000	-0.0206	
766.40000	-0.0204	
766.60000	-0.0200	
766.80000	-0.0198	
767.00000	-0.0194	
767.20000	-0.0194	
767.40000	-0.0192	
767.60000	-0.0194	
767.80000	-0.0195	
768.00000	-0.0192	
768.20000	-0.0191	
768.40000	-0.0191	
768.60000	-0.0188	
768.80000	-0.0186	
769.00000	-0.0182	
769.20000	-0.0179	
769.40000	-0.0175	
769.60000	-0.0166	
769.80000	-0.0168	
770.00000	-0.0166	
770.20000	-0.0163	
770.40000	-0.0160	
770.60000	-0.0157	
770.80000	-0.0154	
771.00000	-0.0151	
771.20000	-0.0146	
771.40000	-0.0145	
771.60000	-0.0142	
771.80000	-0.0137	
772.00000	-0.0134	
772.20000	-0.0131	
772.40000	-0.0128	
772.60000	-0.0127	
772.80000	-0.0122	
773.00000	-0.0122	
773.20000	-0.0116	
773.40000	-0.0113	
773.60000	-0.0111	
773.80000	-0.0108	
774.00000	-0.0108	
774.20000	-0.0107	
774.40000	-0.0107	
774.60000	-0.0104	
774.80000	-0.0105	
775.00000	-0.0105	
775.20000	-0.0105	
775.40000	-0.0105	
775.60000	-0.0104	
775.80000	-0.0102	
776.00000	-0.0107	
776.20000	-0.0105	
776.40000	-0.0104	
776.60000	-0.0105	
776.80000	-0.0107	
777.00000	-0.0102	
777.20000	-0.0101	
777.40000	-0.0102	
777.60000	-0.0098	
777.80000	-0.0101	
778.00000	-0.0102	
778.20000	-0.0104	
778.40000	-0.0104	
778.60000	-0.0104	
778.80000	-0.0107	
779.00000	-0.0108	
779.20000	-0.0108	
779.40000	-0.0105	
779.60000	-0.0111	
779.80000	-0.0113	
780.00000	-0.0113	
780.20000	-0.0116	
780.40000	-0.0122	
780.60000	-0.0125	
780.80000	-0.0122	
781.00000	-0.0122	
781.20000	-0.0122	
781.40000	-0.0127	
781.60000	-0.0125	
781.80000	-0.0122	
782.00000	-0.0121	
782.20000	-0.0124	
782.40000	-0.0119	
782.60000	-0.0122	
782.80000	-0.0119	
783.00000	-0.0116	
783.20000	-0.0116	
783.40000	-0.0116	
783.60000	-0.0116	
783.80000	-0.0116	
784.00000	-0.0111	
784.20000	-0.0121	
784.40000	-0.0122	
784.60000	-0.0122	
784.80000	-0.0122	
785.00000	-0.0121	
785.20000	-0.0121	
785.40000	-0.0124	
785.60000	-0.0122	
785.80000	-0.0122	
786.00000	-0.0116	
786.20000	-0.0121	
786.40000	-0.0119	
786.60000	-0.0121	
786.80000	-0.0119	
787.00000	-0.0119	
787.20000	-0.0119	
787.40000	-0.0122	
787.60000	-0.0122	
787.80000	-0.0121	
788.00000	-0.0124	
788.20000	-0.0125	
788.40000	-0.0124	
788.60000	-0.0124	
788.80000	-0.0124	
789.00000	-0.0127	
789.20000	-0.0125	
789.40000	-0.0127	
789.60000	-0.0127	
789.80000	-0.0130	
790.00000	-0.0130	
790.20000	-0.0130	
790.40000	-0.0133	
790.60000	-0.0136	
790.80000	-0.0142	
791.00000	-0.0143	
791.20000	-0.0145	
791.40000	-0.0146	
791.60000	-0.0153	
791.80000	-0.0157	
792.00000	-0.0157	
792.20000	-0.0165	
792.40000	-0.0166	
792.60000	-0.0171	
792.80000	-0.0172	
793.00000	-0.0177	
793.20000	-0.0182	
793.40000	-0.0186	
793.60000	-0.0188	
793.80000	-0.0192	
794.00000	-0.0197	
794.20000	-0.0203	
794.40000	-0.0209	
794.60000	-0.0214	
794.80000	-0.0217	
795.00000	-0.0221	
795.20000	-0.0224	
795.40000	-0.0233	
795.60000	-0.0238	
795.80000	-0.0246	
796.00000	-0.0250	
796.20000	-0.0255	
796.40000	-0.0261	
796.60000	-0.0269	
796.80000	-0.0275	
797.00000	-0.0281	
797.20000	-0.0285	
797.40000	-0.0291	
797.60000	-0.0293	
797.80000	-0.0299	
798.00000	-0.0305	
798.20000	-0.0307	
798.40000	-0.0311	
798.60000	-0.0314	
798.80000	-0.0319	
799.00000	-0.0322	
799.20000	-0.0328	
799.40000	-0.0331	
799.60000	-0.0336	
799.80000	-0.0337	
800.00000	-0.0340	
800.20000	-0.0345	
800.40000	-0.0348	
800.60000	-0.0354	
800.80000	-0.0359	
801.00000	-0.0366	
801.20000	-0.0369	
801.40000	-0.0375	
801.60000	-0.0377	
801.80000	-0.0381	
802.00000	-0.0385	
802.20000	-0.0391	
802.40000	-0.0391	
802.60000	-0.0395	
802.80000	-0.0395	
803.00000	-0.0400	
803.20000	-0.0400	
803.40000	-0.0406	
803.60000	-0.0409	
803.80000	-0.0406	
804.00000	-0.0410	
804.20000	-0.0410	
804.40000	-0.0418	
804.60000	-0.0417	
804.80000	-0.0423	
805.00000	-0.0424	
805.20000	-0.0421	
805.40000	-0.0426	
805.60000	-0.0427	
805.80000	-0.0426	
806.00000	-0.0429	
806.20000	-0.0432	
806.40000	-0.0432	
806.60000	-0.0436	
806.80000	-0.0439	
807.00000	-0.0439	
807.20000	-0.0443	
807.40000	-0.0446	
807.60000	-0.0452	
807.80000	-0.0452	
808.00000	-0.0458	
808.20000	-0.0459	
808.40000	-0.0464	
808.60000	-0.0468	
808.80000	-0.0473	
809.00000	-0.0479	
809.20000	-0.0482	
809.40000	-0.0484	
809.60000	-0.0488	
809.80000	-0.0491	
810.00000	-0.0496	
810.20000	-0.0497	
810.40000	-0.0500	
810.60000	-0.0504	
810.80000	-0.0507	
811.00000	-0.0511	
811.20000	-0.0513	
811.40000	-0.0514	
811.60000	-0.0523	
811.80000	-0.0528	
812.00000	-0.0528	
812.20000	-0.0531	
812.40000	-0.0534	
812.60000	-0.0539	
812.80000	-0.0543	
813.00000	-0.0546	
813.20000	-0.0548	
813.40000	-0.0557	
813.60000	-0.0562	
813.80000	-0.0562	
814.00000	-0.0568	
814.20000	-0.0571	
814.40000	-0.0572	
814.60000	-0.0575	
814.80000	-0.0577	
815.00000	-0.0580	
815.20000	-0.0577	
815.40000	-0.0581	
815.60000	-0.0578	
815.80000	-0.0581	
816.00000	-0.0584	
816.20000	-0.0587	
816.40000	-0.0586	
816.60000	-0.0589	
816.80000	-0.0592	
817.00000	-0.0586	
817.20000	-0.0592	
817.40000	-0.0594	
817.60000	-0.0594	
817.80000	-0.0598	
818.00000	-0.0601	
818.20000	-0.0600	
818.40000	-0.0603	
818.60000	-0.0600	
818.80000	-0.0603	
819.00000	-0.0606	
819.20000	-0.0603	
819.40000	-0.0603	
819.60000	-0.0603	
819.80000	-0.0600	
820.00000	-0.0601	
820.20000	-0.0603	
820.40000	-0.0603	
820.60000	-0.0603	
820.80000	-0.0601	
821.00000	-0.0603	
821.20000	-0.0600	
821.40000	-0.0606	
821.60000	-0.0606	
821.80000	-0.0600	
822.00000	-0.0601	
822.20000	-0.0601	
822.40000	-0.0600	
822.60000	-0.0600	
822.80000	-0.0598	
823.00000	-0.0597	
823.20000	-0.0598	
823.40000	-0.0598	
823.60000	-0.0598	
823.80000	-0.0597	
824.00000	-0.0597	
824.20000	-0.0598	
824.40000	-0.0598	
824.60000	-0.0598	
824.80000	-0.0606	
825.00000	-0.0607	
825.20000	-0.0610	
825.40000	-0.0612	
825.60000	-0.0610	
825.80000	-0.0613	
826.00000	-0.0616	
826.20000	-0.0613	
826.40000	-0.0616	
826.60000	-0.0618	
826.80000	-0.0618	
827.00000	-0.0616	
827.20000	-0.0618	
827.40000	-0.0623	
827.60000	-0.0621	
827.80000	-0.0623	
828.00000	-0.0632	
828.20000	-0.0630	
828.40000	-0.0629	
828.60000	-0.0632	
828.80000	-0.0635	
829.00000	-0.0638	
829.20000	-0.0638	
829.40000	-0.0639	
829.60000	-0.0642	
829.80000	-0.0642	
830.00000	-0.0650	
830.20000	-0.0652	
830.40000	-0.0653	
830.60000	-0.0653	
830.80000	-0.0650	
831.00000	-0.0656	
831.20000	-0.0658	
831.40000	-0.0655	
831.60000	-0.0655	
831.80000	-0.0656	
832.00000	-0.0655	
832.20000	-0.0658	
832.40000	-0.0656	
832.60000	-0.0658	
832.80000	-0.0656	
833.00000	-0.0655	
833.20000	-0.0656	
833.40000	-0.0656	
833.60000	-0.0653	
833.80000	-0.0653	
834.00000	-0.0656	
834.20000	-0.0656	
834.40000	-0.0658	
834.60000	-0.0659	
834.80000	-0.0658	
835.00000	-0.0658	
835.20000	-0.0658	
835.40000	-0.0658	
835.60000	-0.0658	
835.80000	-0.0658	
836.00000	-0.0656	
836.20000	-0.0648	
836.40000	-0.0652	
836.60000	-0.0648	
836.80000	-0.0642	
837.00000	-0.0642	
837.20000	-0.0642	
837.40000	-0.0642	
837.60000	-0.0638	
837.80000	-0.0636	
838.00000	-0.0633	
838.20000	-0.0630	
838.40000	-0.0629	
838.60000	-0.0623	
838.80000	-0.0621	
839.00000	-0.0621	
839.20000	-0.0615	
839.40000	-0.0615	
839.60000	-0.0612	
839.80000	-0.0612	
840.00000	-0.0610	
840.20000	-0.0610	
840.40000	-0.0609	
840.60000	-0.0607	
840.80000	-0.0603	
841.00000	-0.0603	
841.20000	-0.0603	
841.40000	-0.0600	
841.60000	-0.0603	
841.80000	-0.0603	
842.00000	-0.0603	
842.20000	-0.0606	
842.40000	-0.0603	
842.60000	-0.0607	
842.80000	-0.0606	
843.00000	-0.0606	
843.20000	-0.0606	
843.40000	-0.0607	
843.60000	-0.0607	
843.80000	-0.0606	
844.00000	-0.0603	
844.20000	-0.0603	
844.40000	-0.0607	
844.60000	-0.0603	
844.80000	-0.0609	
845.00000	-0.0610	
845.20000	-0.0610	
845.40000	-0.0609	
845.60000	-0.0610	
845.80000	-0.0610	
846.00000	-0.0607	
846.20000	-0.0610	
846.40000	-0.0609	
846.60000	-0.0609	
846.80000	-0.0610	
847.00000	-0.0610	
847.20000	-0.0610	
847.40000	-0.0610	
847.60000	-0.0612	
847.80000	-0.0609	
848.00000	-0.0607	
848.20000	-0.0606	
848.40000	-0.0601	
848.60000	-0.0600	
848.80000	-0.0601	
849.00000	-0.0600	
849.20000	-0.0595	
849.40000	-0.0594	
849.60000	-0.0591	
849.80000	-0.0592	
850.00000	-0.0589	
850.20000	-0.0584	
850.40000	-0.0584	
850.60000	-0.0581	
850.80000	-0.0581	
851.00000	-0.0584	
851.20000	-0.0581	
851.40000	-0.0577	
851.60000	-0.0577	
851.80000	-0.0577	
852.00000	-0.0571	
852.20000	-0.0571	
852.40000	-0.0569	
852.60000	-0.0565	
852.80000	-0.0557	
853.00000	-0.0557	
853.20000	-0.0554	
853.40000	-0.0551	
853.60000	-0.0549	
853.80000	-0.0545	
854.00000	-0.0545	
854.20000	-0.0539	
854.40000	-0.0534	
854.60000	-0.0529	
854.80000	-0.0531	
855.00000	-0.0526	
855.20000	-0.0522	
855.40000	-0.0516	
855.60000	-0.0513	
855.80000	-0.0510	
856.00000	-0.0508	
856.20000	-0.0504	
856.40000	-0.0500	
856.60000	-0.0497	
856.80000	-0.0493	
857.00000	-0.0494	
857.20000	-0.0493	
857.40000	-0.0490	
857.60000	-0.0491	
857.80000	-0.0487	
858.00000	-0.0487	
858.20000	-0.0490	
858.40000	-0.0488	
858.60000	-0.0488	
858.80000	-0.0488	
859.00000	-0.0487	
859.20000	-0.0485	
859.40000	-0.0484	
859.60000	-0.0484	
859.80000	-0.0482	
860.00000	-0.0482	
860.20000	-0.0481	
860.40000	-0.0479	
860.60000	-0.0479	
860.80000	-0.0476	
861.00000	-0.0473	
861.20000	-0.0475	
861.40000	-0.0476	
861.60000	-0.0473	
861.80000	-0.0473	
862.00000	-0.0471	
862.20000	-0.0470	
862.40000	-0.0470	
862.60000	-0.0468	
862.80000	-0.0471	
863.00000	-0.0470	
863.20000	-0.0470	
863.40000	-0.0473	
863.60000	-0.0473	
863.80000	-0.0470	
864.00000	-0.0470	
864.20000	-0.0471	
864.40000	-0.0470	
864.60000	-0.0468	
864.80000	-0.0465	
865.00000	-0.0464	
865.20000	-0.0461	
865.40000	-0.0458	
865.60000	-0.0458	
865.80000	-0.0459	
866.00000	-0.0458	
866.20000	-0.0452	
866.40000	-0.0447	
866.60000	-0.0446	
866.80000	-0.0446	
867.00000	-0.0443	
867.20000	-0.0439	
867.40000	-0.0438	
867.60000	-0.0432	
867.80000	-0.0433	
868.00000	-0.0432	
868.20000	-0.0427	
868.40000	-0.0424	
868.60000	-0.0426	
868.80000	-0.0423	
869.00000	-0.0420	
869.20000	-0.0418	
869.40000	-0.0412	
869.60000	-0.0406	
869.80000	-0.0403	
870.00000	-0.0404	
870.20000	-0.0400	
870.40000	-0.0398	
870.60000	-0.0394	
870.80000	-0.0391	
871.00000	-0.0389	
871.20000	-0.0386	
871.40000	-0.0386	
871.60000	-0.0381	
871.80000	-0.0378	
872.00000	-0.0377	
872.20000	-0.0372	
872.40000	-0.0369	
872.60000	-0.0366	
872.80000	-0.0366	
873.00000	-0.0360	
873.20000	-0.0362	
873.40000	-0.0360	
873.60000	-0.0360	
873.80000	-0.0359	
874.00000	-0.0354	
874.20000	-0.0352	
874.40000	-0.0349	
874.60000	-0.0346	
874.80000	-0.0346	
875.00000	-0.0346	
875.20000	-0.0346	
875.40000	-0.0346	
875.60000	-0.0346	
875.80000	-0.0346	
876.00000	-0.0348	
876.20000	-0.0345	
876.40000	-0.0345	
876.60000	-0.0345	
876.80000	-0.0346	
877.00000	-0.0342	
877.20000	-0.0343	
877.40000	-0.0340	
877.60000	-0.0340	
877.80000	-0.0340	
878.00000	-0.0340	
878.20000	-0.0340	
878.40000	-0.0342	
878.60000	-0.0342	
878.80000	-0.0342	
879.00000	-0.0343	
879.20000	-0.0342	
879.40000	-0.0343	
879.60000	-0.0345	
879.80000	-0.0342	
880.00000	-0.0345	
880.20000	-0.0346	
880.40000	-0.0346	
880.60000	-0.0346	
880.80000	-0.0348	
881.00000	-0.0348	
881.20000	-0.0352	
881.40000	-0.0348	
881.60000	-0.0346	
881.80000	-0.0345	
882.00000	-0.0343	
882.20000	-0.0342	
882.40000	-0.0342	
882.60000	-0.0337	
882.80000	-0.0336	
883.00000	-0.0336	
883.20000	-0.0336	
883.40000	-0.0333	
883.60000	-0.0331	
883.80000	-0.0333	
884.00000	-0.0334	
884.20000	-0.0331	
884.40000	-0.0334	
884.60000	-0.0333	
884.80000	-0.0333	
885.00000	-0.0331	
885.20000	-0.0331	
885.40000	-0.0328	
885.60000	-0.0327	
885.80000	-0.0323	
886.00000	-0.0323	
886.20000	-0.0320	
886.40000	-0.0320	
886.60000	-0.0319	
886.80000	-0.0316	
887.00000	-0.0316	
887.20000	-0.0313	
887.40000	-0.0311	
887.60000	-0.0310	
887.80000	-0.0304	
888.00000	-0.0301	
888.20000	-0.0299	
888.40000	-0.0298	
888.60000	-0.0296	
888.80000	-0.0294	
889.00000	-0.0296	
889.20000	-0.0291	
889.40000	-0.0291	
889.60000	-0.0290	
889.80000	-0.0290	
890.00000	-0.0290	
890.20000	-0.0290	
890.40000	-0.0285	
890.60000	-0.0285	
890.80000	-0.0288	
891.00000	-0.0290	
891.20000	-0.0288	
891.40000	-0.0285	
891.60000	-0.0290	
891.80000	-0.0288	
892.00000	-0.0290	
892.20000	-0.0290	
892.40000	-0.0291	
892.60000	-0.0290	
892.80000	-0.0291	
893.00000	-0.0290	
893.20000	-0.0288	
893.40000	-0.0288	
893.60000	-0.0285	
893.80000	-0.0285	
894.00000	-0.0288	
894.20000	-0.0290	
894.40000	-0.0291	
894.60000	-0.0293	
894.80000	-0.0291	
895.00000	-0.0293	
895.20000	-0.0293	
895.40000	-0.0293	
895.60000	-0.0296	
895.80000	-0.0294	
896.00000	-0.0294	
896.20000	-0.0301	
896.40000	-0.0302	
896.60000	-0.0304	
896.80000	-0.0307	
897.00000	-0.0310	
897.20000	-0.0310	
897.40000	-0.0314	
897.60000	-0.0313	
897.80000	-0.0313	
898.00000	-0.0316	
898.20000	-0.0314	
898.40000	-0.0311	
898.60000	-0.0313	
898.80000	-0.0314	
899.00000	-0.0313	
899.20000	-0.0316	
899.40000	-0.0313	
899.60000	-0.0313	
899.80000	-0.0311	
900.00000	-0.0313	
900.20000	-0.0311	
900.40000	-0.0313	
900.60000	-0.0307	
900.80000	-0.0311	
901.00000	-0.0314	
901.20000	-0.0311	
901.40000	-0.0313	
901.60000	-0.0313	
901.80000	-0.0311	
902.00000	-0.0313	
902.20000	-0.0313	
902.40000	-0.0310	
902.60000	-0.0304	
902.80000	-0.0304	
903.00000	-0.0302	
903.20000	-0.0302	
903.40000	-0.0302	
903.60000	-0.0301	
903.80000	-0.0301	
904.00000	-0.0296	
904.20000	-0.0298	
904.40000	-0.0296	
904.60000	-0.0296	
904.80000	-0.0298	
905.00000	-0.0298	
905.20000	-0.0294	
905.40000	-0.0296	
905.60000	-0.0291	
905.80000	-0.0290	
906.00000	-0.0285	
906.20000	-0.0282	
906.40000	-0.0282	
906.60000	-0.0282	
906.80000	-0.0284	
907.00000	-0.0281	
907.20000	-0.0281	
907.40000	-0.0279	
907.60000	-0.0281	
907.80000	-0.0281	
908.00000	-0.0281	
908.20000	-0.0282	
908.40000	-0.0281	
908.60000	-0.0288	
908.80000	-0.0285	
909.00000	-0.0284	
909.20000	-0.0288	
909.40000	-0.0290	
909.60000	-0.0284	
909.80000	-0.0290	
910.00000	-0.0294	
910.20000	-0.0291	
910.40000	-0.0294	
910.60000	-0.0294	
910.80000	-0.0293	
911.00000	-0.0298	
911.20000	-0.0296	
911.40000	-0.0302	
911.60000	-0.0302	
911.80000	-0.0302	
912.00000	-0.0302	
912.20000	-0.0302	
912.40000	-0.0307	
912.60000	-0.0305	
912.80000	-0.0311	
913.00000	-0.0311	
913.20000	-0.0316	
913.40000	-0.0319	
913.60000	-0.0320	
913.80000	-0.0323	
914.00000	-0.0325	
914.20000	-0.0327	
914.40000	-0.0325	
914.60000	-0.0328	
914.80000	-0.0328	
915.00000	-0.0325	
915.20000	-0.0328	
915.40000	-0.0328	
915.60000	-0.0331	
915.80000	-0.0328	
916.00000	-0.0333	
916.20000	-0.0328	
916.40000	-0.0328	
916.60000	-0.0323	
916.80000	-0.0327	
917.00000	-0.0322	
917.20000	-0.0323	
917.40000	-0.0327	
917.60000	-0.0328	
917.80000	-0.0333	
918.00000	-0.0334	
918.20000	-0.0331	
918.40000	-0.0333	
918.60000	-0.0331	
918.80000	-0.0334	
919.00000	-0.0333	
919.20000	-0.0333	
919.40000	-0.0327	
919.60000	-0.0323	
919.80000	-0.0322	
920.00000	-0.0323	
920.20000	-0.0323	
920.40000	-0.0320	
920.60000	-0.0323	
920.80000	-0.0320	
921.00000	-0.0317	
921.20000	-0.0319	
921.40000	-0.0319	
921.60000	-0.0319	
921.80000	-0.0316	
922.00000	-0.0314	
922.20000	-0.0311	
922.40000	-0.0311	
922.60000	-0.0310	
922.80000	-0.0307	
923.00000	-0.0307	
923.20000	-0.0305	
923.40000	-0.0304	
923.60000	-0.0307	
923.80000	-0.0302	
924.00000	-0.0302	
924.20000	-0.0302	
924.40000	-0.0302	
924.60000	-0.0302	
924.80000	-0.0302	
925.00000	-0.0307	
925.20000	-0.0310	
925.40000	-0.0310	
925.60000	-0.0310	
925.80000	-0.0313	
926.00000	-0.0314	
926.20000	-0.0313	
926.40000	-0.0313	
926.60000	-0.0314	
926.80000	-0.0316	
927.00000	-0.0319	
927.20000	-0.0314	
927.40000	-0.0317	
927.60000	-0.0320	
927.80000	-0.0325	
928.00000	-0.0327	
928.20000	-0.0327	
928.40000	-0.0331	
928.60000	-0.0334	
928.80000	-0.0334	
929.00000	-0.0336	
929.20000	-0.0337	
929.40000	-0.0339	
929.60000	-0.0342	
929.80000	-0.0345	
930.00000	-0.0348	
930.20000	-0.0348	
930.40000	-0.0354	
930.60000	-0.0356	
930.80000	-0.0356	
931.00000	-0.0359	
931.20000	-0.0359	
931.40000	-0.0357	
931.60000	-0.0356	
931.80000	-0.0356	
932.00000	-0.0356	
932.20000	-0.0356	
932.40000	-0.0359	
932.60000	-0.0356	
932.80000	-0.0354	
933.00000	-0.0354	
933.20000	-0.0354	
933.40000	-0.0354	
933.60000	-0.0354	
933.80000	-0.0349	
934.00000	-0.0348	
934.20000	-0.0352	
934.40000	-0.0356	
934.60000	-0.0354	
934.80000	-0.0354	
935.00000	-0.0354	
935.20000	-0.0352	
935.40000	-0.0354	
935.60000	-0.0354	
935.80000	-0.0352	
936.00000	-0.0354	
936.20000	-0.0346	
936.40000	-0.0345	
936.60000	-0.0345	
936.80000	-0.0343	
937.00000	-0.0342	
937.20000	-0.0340	
937.40000	-0.0343	
937.60000	-0.0339	
937.80000	-0.0334	
938.00000	-0.0340	
938.20000	-0.0339	
938.40000	-0.0331	
938.60000	-0.0331	
938.80000	-0.0327	
939.00000	-0.0328	
939.20000	-0.0325	
939.40000	-0.0322	
939.60000	-0.0320	
939.80000	-0.0322	
940.00000	-0.0323	
940.20000	-0.0322	
940.40000	-0.0323	
940.60000	-0.0322	
940.80000	-0.0323	
941.00000	-0.0322	
941.20000	-0.0323	
941.40000	-0.0323	
941.60000	-0.0325	
941.80000	-0.0325	
942.00000	-0.0325	
942.20000	-0.0327	
942.40000	-0.0328	
942.60000	-0.0331	
942.80000	-0.0328	
943.00000	-0.0331	
943.20000	-0.0334	
943.40000	-0.0336	
943.60000	-0.0339	
943.80000	-0.0339	
944.00000	-0.0337	
944.20000	-0.0339	
944.40000	-0.0340	
944.60000	-0.0340	
944.80000	-0.0340	
945.00000	-0.0342	
945.20000	-0.0342	
945.40000	-0.0346	
945.60000	-0.0343	
945.80000	-0.0348	
946.00000	-0.0346	
946.20000	-0.0349	
946.40000	-0.0349	
946.60000	-0.0357	
946.80000	-0.0356	
947.00000	-0.0357	
947.20000	-0.0360	
947.40000	-0.0362	
947.60000	-0.0362	
947.80000	-0.0363	
948.00000	-0.0362	
948.20000	-0.0363	
948.40000	-0.0362	
948.60000	-0.0362	
948.80000	-0.0362	
949.00000	-0.0362	
949.20000	-0.0359	
949.40000	-0.0360	
949.60000	-0.0359	
949.80000	-0.0356	
950.00000	-0.0356	
950.20000	-0.0354	
950.40000	-0.0357	
950.60000	-0.0354	
950.80000	-0.0352	
951.00000	-0.0357	
951.20000	-0.0359	
951.40000	-0.0356	
951.60000	-0.0356	
951.80000	-0.0356	
952.00000	-0.0356	
952.20000	-0.0357	
952.40000	-0.0354	
952.60000	-0.0349	
952.80000	-0.0346	
953.00000	-0.0345	
953.20000	-0.0345	
953.40000	-0.0345	
953.60000	-0.0348	
953.80000	-0.0343	
954.00000	-0.0343	
954.20000	-0.0342	
954.40000	-0.0339	
954.60000	-0.0339	
954.80000	-0.0340	
955.00000	-0.0336	
955.20000	-0.0334	
955.40000	-0.0333	
955.60000	-0.0331	
955.80000	-0.0333	
956.00000	-0.0327	
956.20000	-0.0325	
956.40000	-0.0327	
956.60000	-0.0327	
956.80000	-0.0325	
957.00000	-0.0322	
957.20000	-0.0325	
957.40000	-0.0320	
957.60000	-0.0322	
957.80000	-0.0322	
958.00000	-0.0323	
958.20000	-0.0325	
958.40000	-0.0327	
958.60000	-0.0331	
958.80000	-0.0327	
959.00000	-0.0333	
959.20000	-0.0334	
959.40000	-0.0331	
959.60000	-0.0334	
959.80000	-0.0334	
960.00000	-0.0334	
960.20000	-0.0334	
960.40000	-0.0336	
960.60000	-0.0336	
960.80000	-0.0336	
961.00000	-0.0342	
961.20000	-0.0342	
961.40000	-0.0340	
961.60000	-0.0345	
961.80000	-0.0349	
962.00000	-0.0346	
962.20000	-0.0348	
962.40000	-0.0348	
962.60000	-0.0352	
962.80000	-0.0354	
963.00000	-0.0356	
963.20000	-0.0360	
963.40000	-0.0363	
963.60000	-0.0365	
963.80000	-0.0366	
964.00000	-0.0366	
964.20000	-0.0368	
964.40000	-0.0368	
964.60000	-0.0366	
964.80000	-0.0365	
965.00000	-0.0365	
965.20000	-0.0365	
965.40000	-0.0366	
965.60000	-0.0368	
965.80000	-0.0368	
966.00000	-0.0366	
966.20000	-0.0362	
966.40000	-0.0363	
966.60000	-0.0362	
966.80000	-0.0360	
967.00000	-0.0362	
967.20000	-0.0360	
967.40000	-0.0362	
967.60000	-0.0360	
967.80000	-0.0360	
968.00000	-0.0363	
968.20000	-0.0362	
968.40000	-0.0360	
968.60000	-0.0359	
968.80000	-0.0360	
969.00000	-0.0359	
969.20000	-0.0356	
969.40000	-0.0348	
969.60000	-0.0352	
969.80000	-0.0348	
970.00000	-0.0346	
970.20000	-0.0348	
970.40000	-0.0346	
970.60000	-0.0348	
970.80000	-0.0342	
971.00000	-0.0342	
971.20000	-0.0342	
971.40000	-0.0340	
971.60000	-0.0342	
971.80000	-0.0337	
972.00000	-0.0336	
972.20000	-0.0333	
972.40000	-0.0331	
972.60000	-0.0327	
972.80000	-0.0328	
973.00000	-0.0328	
973.20000	-0.0327	
973.40000	-0.0328	
973.60000	-0.0323	
973.80000	-0.0322	
974.00000	-0.0325	
974.20000	-0.0327	
974.40000	-0.0327	
974.60000	-0.0325	
974.80000	-0.0328	
975.00000	-0.0331	
975.20000	-0.0333	
975.40000	-0.0333	
975.60000	-0.0333	
975.80000	-0.0334	
976.00000	-0.0337	
976.20000	-0.0337	
976.40000	-0.0339	
976.60000	-0.0340	
976.80000	-0.0343	
977.00000	-0.0345	
977.20000	-0.0345	
977.40000	-0.0343	
977.60000	-0.0348	
977.80000	-0.0343	
978.00000	-0.0348	
978.20000	-0.0349	
978.40000	-0.0346	
978.60000	-0.0348	
978.80000	-0.0354	
979.00000	-0.0354	
979.20000	-0.0354	
979.40000	-0.0359	
979.60000	-0.0360	
979.80000	-0.0360	
980.00000	-0.0365	
980.20000	-0.0365	
980.40000	-0.0368	
980.60000	-0.0368	
980.80000	-0.0372	
981.00000	-0.0372	
981.20000	-0.0368	
981.40000	-0.0372	
981.60000	-0.0366	
981.80000	-0.0372	
982.00000	-0.0368	
982.20000	-0.0368	
982.40000	-0.0366	
982.60000	-0.0368	
982.80000	-0.0365	
983.00000	-0.0363	
983.20000	-0.0360	
983.40000	-0.0363	
983.60000	-0.0365	
983.80000	-0.0360	
984.00000	-0.0363	
984.20000	-0.0362	
984.40000	-0.0363	
984.60000	-0.0366	
984.80000	-0.0365	
985.00000	-0.0365	
985.20000	-0.0363	
985.40000	-0.0362	
985.60000	-0.0365	
985.80000	-0.0360	
986.00000	-0.0356	
986.20000	-0.0352	
986.40000	-0.0349	
986.60000	-0.0354	
986.80000	-0.0352	
987.00000	-0.0349	
987.20000	-0.0352	
987.40000	-0.0348	
987.60000	-0.0343	
987.80000	-0.0343	
988.00000	-0.0337	
988.20000	-0.0337	
988.40000	-0.0334	
988.60000	-0.0333	
988.80000	-0.0333	
989.00000	-0.0328	
989.20000	-0.0331	
989.40000	-0.0328	
989.60000	-0.0325	
989.80000	-0.0327	
990.00000	-0.0325	
990.20000	-0.0327	
990.40000	-0.0323	
990.60000	-0.0325	
990.80000	-0.0325	
991.00000	-0.0323	
991.20000	-0.0323	
991.40000	-0.0328	
991.60000	-0.0331	
991.80000	-0.0331	
992.00000	-0.0333	
992.20000	-0.0333	
992.40000	-0.0339	
992.60000	-0.0340	
992.80000	-0.0339	
993.00000	-0.0340	
993.20000	-0.0343	
993.40000	-0.0342	
993.60000	-0.0340	
993.80000	-0.0342	
994.00000	-0.0340	
994.20000	-0.0342	
994.40000	-0.0345	
994.60000	-0.0348	
994.80000	-0.0349	
995.00000	-0.0348	
995.20000	-0.0352	
995.40000	-0.0349	
995.60000	-0.0348	
995.80000	-0.0352	
996.00000	-0.0354	
996.20000	-0.0356	
996.40000	-0.0356	
996.60000	-0.0359	
996.80000	-0.0365	
997.00000	-0.0365	
997.20000	-0.0368	
997.40000	-0.0366	
997.60000	-0.0368	
997.80000	-0.0368	
998.00000	-0.0366	
998.20000	-0.0368	
998.40000	-0.0369	
998.60000	-0.0368	
998.80000	-0.0369	
999.00000	-0.0369	
999.20000	-0.0369	
999.40000	-0.0369	
999.60000	-0.0368	
999.80000	-0.0368	
1000.00000	-0.0366	
1000.20000	-0.0363	
1000.40000	-0.0366	
1000.60000	-0.0366	
1000.80000	-0.0365	
1001.00000	-0.0368	
1001.20000	-0.0368	
1001.40000	-0.0363	
1001.60000	-0.0365	
1001.80000	-0.0366	
1002.00000	-0.0363	
1002.20000	-0.0368	
1002.40000	-0.0366	
1002.60000	-0.0363	
1002.80000	-0.0359	
1003.00000	-0.0359	
1003.20000	-0.0357	
1003.40000	-0.0356	
1003.60000	-0.0354	
1003.80000	-0.0349	
1004.00000	-0.0352	
1004.20000	-0.0352	
1004.40000	-0.0345	
1004.60000	-0.0348	
1004.80000	-0.0346	
1005.00000	-0.0346	
1005.20000	-0.0343	
1005.40000	-0.0340	
1005.60000	-0.0337	
1005.80000	-0.0334	
1006.00000	-0.0333	
1006.20000	-0.0336	
1006.40000	-0.0334	
1006.60000	-0.0333	
1006.80000	-0.0333	
1007.00000	-0.0333	
1007.20000	-0.0328	
1007.40000	-0.0328	
1007.60000	-0.0327	
1007.80000	-0.0327	
1008.00000	-0.0327	
1008.20000	-0.0325	
1008.40000	-0.0327	
1008.60000	-0.0331	
1008.80000	-0.0331	
1009.00000	-0.0331	
1009.20000	-0.0331	
1009.40000	-0.0334	
1009.60000	-0.0336	
1009.80000	-0.0337	
1010.00000	-0.0340	
1010.20000	-0.0342	
1010.40000	-0.0339	
1010.60000	-0.0342	
1010.80000	-0.0343	
1011.00000	-0.0345	
1011.20000	-0.0345	
1011.40000	-0.0346	
1011.60000	-0.0346	
1011.80000	-0.0348	
1012.00000	-0.0348	
1012.20000	-0.0356	
1012.40000	-0.0357	
1012.60000	-0.0357	
1012.80000	-0.0362	
1013.00000	-0.0363	
1013.20000	-0.0365	
1013.40000	-0.0365	
1013.60000	-0.0368	
1013.80000	-0.0368	
1014.00000	-0.0368	
1014.20000	-0.0369	
1014.40000	-0.0372	
1014.60000	-0.0369	
1014.80000	-0.0368	
1015.00000	-0.0368	
1015.20000	-0.0369	
1015.40000	-0.0375	
1015.60000	-0.0369	
1015.80000	-0.0372	
1016.00000	-0.0369	
1016.20000	-0.0368	
1016.40000	-0.0368	
1016.60000	-0.0366	
1016.80000	-0.0366	
1017.00000	-0.0363	
1017.20000	-0.0363	
1017.40000	-0.0365	
1017.60000	-0.0366	
1017.80000	-0.0365	
1018.00000	-0.0362	
1018.20000	-0.0362	
1018.40000	-0.0365	
1018.60000	-0.0363	
1018.80000	-0.0360	
1019.00000	-0.0360	
1019.20000	-0.0357	
1019.40000	-0.0354	
1019.60000	-0.0352	
1019.80000	-0.0352	
1020.00000	-0.0349	
1020.20000	-0.0354	
1020.40000	-0.0348	
1020.60000	-0.0348	
1020.80000	-0.0346	
1021.00000	-0.0345	
1021.20000	-0.0340	
1021.40000	-0.0342	
1021.60000	-0.0340	
1021.80000	-0.0337	
1022.00000	-0.0334	
1022.20000	-0.0334	
1022.40000	-0.0333	
1022.60000	-0.0328	
1022.80000	-0.0331	
1023.00000	-0.0331	
1023.20000	-0.0328	
1023.40000	-0.0327	
1023.60000	-0.0325	
1023.80000	-0.0325	
1024.00000	-0.0323	
1024.20000	-0.0323	
1024.40000	-0.0323	
1024.60000	-0.0323	
1024.80000	-0.0327	
1025.00000	-0.0325	
1025.20000	-0.0327	
1025.40000	-0.0333	
1025.60000	-0.0328	
1025.80000	-0.0328	
1026.00000	-0.0333	
1026.20000	-0.0333	
1026.40000	-0.0336	
1026.60000	-0.0339	
1026.80000	-0.0339	
1027.00000	-0.0339	
1027.20000	-0.0340	
1027.40000	-0.0340	
1027.60000	-0.0342	
1027.80000	-0.0345	
1028.00000	-0.0345	
1028.20000	-0.0348	
1028.40000	-0.0346	
1028.60000	-0.0349	
1028.80000	-0.0349	
1029.00000	-0.0349	
1029.20000	-0.0356	
1029.40000	-0.0356	
1029.60000	-0.0359	
1029.80000	-0.0362	
1030.00000	-0.0362	
1030.20000	-0.0365	
1030.40000	-0.0372	
1030.60000	-0.0372	
1030.80000	-0.0369	
1031.00000	-0.0374	
1031.20000	-0.0375	
1031.40000	-0.0374	
1031.60000	-0.0369	
1031.80000	-0.0375	
1032.00000	-0.0374	
1032.20000	-0.0375	
1032.40000	-0.0372	
1032.60000	-0.0372	
1032.80000	-0.0374	
1033.00000	-0.0369	
1033.20000	-0.0369	
1033.40000	-0.0369	
1033.60000	-0.0368	
1033.80000	-0.0369	
1034.00000	-0.0368	
1034.20000	-0.0366	
1034.40000	-0.0368	
1034.60000	-0.0368	
1034.80000	-0.0366	
1035.00000	-0.0363	
1035.20000	-0.0365	
1035.40000	-0.0365	
1035.60000	-0.0365	
1035.80000	-0.0362	
1036.00000	-0.0362	
1036.20000	-0.0357	
1036.40000	-0.0356	
1036.60000	-0.0359	
1036.80000	-0.0356	
1037.00000	-0.0354	
1037.20000	-0.0352	
1037.40000	-0.0348	
1037.60000	-0.0345	
1037.80000	-0.0346	
1038.00000	-0.0345	
1038.20000	-0.0343	
1038.40000	-0.0343	
1038.60000	-0.0342	
1038.80000	-0.0339	
1039.00000	-0.0339	
1039.20000	-0.0337	
1039.40000	-0.0334	
1039.60000	-0.0334	
1039.80000	-0.0333	
1040.00000	-0.0331	
1040.20000	-0.0327	
1040.40000	-0.0331	
1040.60000	-0.0327	
1040.80000	-0.0327	
1041.00000	-0.0328	
1041.20000	-0.0325	
1041.40000	-0.0331	
1041.60000	-0.0328	
1041.80000	-0.0333	
1042.00000	-0.0333	
1042.20000	-0.0331	
1042.40000	-0.0334	
1042.60000	-0.0331	
1042.80000	-0.0334	
1043.00000	-0.0337	
1043.20000	-0.0336	
1043.40000	-0.0339	
1043.60000	-0.0339	
1043.80000	-0.0334	
1044.00000	-0.0337	
1044.20000	-0.0340	
1044.40000	-0.0345	
1044.60000	-0.0342	
1044.80000	-0.0345	
1045.00000	-0.0345	
1045.20000	-0.0346	
1045.40000	-0.0349	
1045.60000	-0.0352	
1045.80000	-0.0356	
1046.00000	-0.0356	
1046.20000	-0.0357	
1046.40000	-0.0360	
1046.60000	-0.0360	
1046.80000	-0.0363	
1047.00000	-0.0366	
1047.20000	-0.0365	
1047.40000	-0.0368	
1047.60000	-0.0368	
1047.80000	-0.0369	
1048.00000	-0.0366	
1048.20000	-0.0372	
1048.40000	-0.0369	
1048.60000	-0.0369	
1048.80000	-0.0369	
1049.00000	-0.0368	
1049.20000	-0.0366	
1049.40000	-0.0365	
1049.60000	-0.0365	
1049.80000	-0.0362	
1050.00000	-0.0363	
1050.20000	-0.0362	
1050.40000	-0.0362	
1050.60000	-0.0359	
1050.80000	-0.0363	
1051.00000	-0.0362	
1051.20000	-0.0363	
1051.40000	-0.0365	
1051.60000	-0.0362	
1051.80000	-0.0362	
1052.00000	-0.0362	
1052.20000	-0.0363	
1052.40000	-0.0360	
1052.60000	-0.0357	
1052.80000	-0.0354	
1053.00000	-0.0356	
1053.20000	-0.0349	
1053.40000	-0.0352	
1053.60000	-0.0349	
1053.80000	-0.0346	
1054.00000	-0.0348	
1054.20000	-0.0345	
1054.40000	-0.0345	
1054.60000	-0.0342	
1054.80000	-0.0342	
1055.00000	-0.0342	
1055.20000	-0.0336	
1055.40000	-0.0336	
1055.60000	-0.0334	
1055.80000	-0.0334	
1056.00000	-0.0333	
1056.20000	-0.0328	
1056.40000	-0.0325	
1056.60000	-0.0327	
1056.80000	-0.0327	
1057.00000	-0.0322	
1057.20000	-0.0323	
1057.40000	-0.0327	
1057.60000	-0.0325	
1057.80000	-0.0322	
1058.00000	-0.0327	
1058.20000	-0.0327	
1058.40000	-0.0331	
1058.60000	-0.0333	
1058.80000	-0.0333	
1059.00000	-0.0328	
1059.20000	-0.0333	
1059.40000	-0.0333	
1059.60000	-0.0334	
1059.80000	-0.0333	
1060.00000	-0.0334	
1060.20000	-0.0337	
1060.40000	-0.0336	
1060.60000	-0.0340	
1060.80000	-0.0339	
1061.00000	-0.0339	
1061.20000	-0.0342	
1061.40000	-0.0345	
1061.60000	-0.0343	
1061.80000	-0.0346	
1062.00000	-0.0346	
1062.20000	-0.0352	
1062.40000	-0.0349	
1062.60000	-0.0354	
1062.80000	-0.0356	
1063.00000	-0.0357	
1063.20000	-0.0359	
1063.40000	-0.0363	
1063.60000	-0.0365	
1063.80000	-0.0366	
1064.00000	-0.0366	
1064.20000	-0.0368	
1064.40000	-0.0366	
1064.60000	-0.0366	
1064.80000	-0.0366	
1065.00000	-0.0365	
1065.20000	-0.0363	
1065.40000	-0.0365	
1065.60000	-0.0362	
1065.80000	-0.0363	
1066.00000	-0.0363	
1066.20000	-0.0362	
1066.40000	-0.0359	
1066.60000	-0.0360	
1066.80000	-0.0357	
1067.00000	-0.0359	
1067.20000	-0.0357	
1067.40000	-0.0359	
1067.60000	-0.0357	
1067.80000	-0.0356	
1068.00000	-0.0359	
1068.20000	-0.0359	
1068.40000	-0.0357	
1068.60000	-0.0357	
1068.80000	-0.0359	
1069.00000	-0.0356	
1069.20000	-0.0354	
1069.40000	-0.0349	
1069.60000	-0.0346	
1069.80000	-0.0345	
1070.00000	-0.0345	
1070.20000	-0.0342	
1070.40000	-0.0340	
1070.60000	-0.0339	
1070.80000	-0.0334	
1071.00000	-0.0334	
1071.20000	-0.0337	
1071.40000	-0.0339	
1071.60000	-0.0336	
1071.80000	-0.0331	
1072.00000	-0.0327	
1072.20000	-0.0327	
1072.40000	-0.0322	
1072.60000	-0.0325	
1072.80000	-0.0322	
1073.00000	-0.0323	
1073.20000	-0.0320	
1073.40000	-0.0322	
1073.60000	-0.0319	
1073.80000	-0.0320	
1074.00000	-0.0322	
1074.20000	-0.0319	
1074.40000	-0.0323	
1074.60000	-0.0319	
1074.80000	-0.0322	
1075.00000	-0.0323	
1075.20000	-0.0325	
1075.40000	-0.0327	
1075.60000	-0.0325	
1075.80000	-0.0327	
1076.00000	-0.0328	
1076.20000	-0.0325	
1076.40000	-0.0328	
1076.60000	-0.0333	
1076.80000	-0.0336	
1077.00000	-0.0333	
1077.20000	-0.0336	
1077.40000	-0.0337	
1077.60000	-0.0334	
1077.80000	-0.0337	
1078.00000	-0.0340	
1078.20000	-0.0339	
1078.40000	-0.0339	
1078.60000	-0.0342	
1078.80000	-0.0343	
1079.00000	-0.0346	
1079.20000	-0.0349	
1079.40000	-0.0348	
1079.60000	-0.0348	
1079.80000	-0.0354	
1080.00000	-0.0349	
1080.20000	-0.0356	
1080.40000	-0.0359	
1080.60000	-0.0359	
1080.80000	-0.0360	
1081.00000	-0.0362	
1081.20000	-0.0360	
1081.40000	-0.0362	
1081.60000	-0.0363	
1081.80000	-0.0362	
1082.00000	-0.0363	
1082.20000	-0.0360	
1082.40000	-0.0360	
1082.60000	-0.0360	
1082.80000	-0.0356	
1083.00000	-0.0356	
1083.20000	-0.0354	
1083.40000	-0.0352	
1083.60000	-0.0356	
1083.80000	-0.0352	
1084.00000	-0.0352	
1084.20000	-0.0349	
1084.40000	-0.0354	
1084.60000	-0.0349	
1084.80000	-0.0354	
1085.00000	-0.0352	
1085.20000	-0.0352	
1085.40000	-0.0348	
1085.60000	-0.0349	
1085.80000	-0.0346	
1086.00000	-0.0345	
1086.20000	-0.0340	
1086.40000	-0.0340	
1086.60000	-0.0340	
1086.80000	-0.0340	
1087.00000	-0.0340	
1087.20000	-0.0337	
1087.40000	-0.0336	
1087.60000	-0.0337	
1087.80000	-0.0333	
1088.00000	-0.0333	
1088.20000	-0.0333	
1088.40000	-0.0327	
1088.60000	-0.0325	
1088.80000	-0.0325	
1089.00000	-0.0327	
1089.20000	-0.0322	
1089.40000	-0.0322	
1089.60000	-0.0323	
1089.80000	-0.0320	
1090.00000	-0.0322	
1090.20000	-0.0319	
1090.40000	-0.0319	
1090.60000	-0.0317	
1090.80000	-0.0316	
1091.00000	-0.0320	
1091.20000	-0.0319	
1091.40000	-0.0317	
1091.60000	-0.0319	
1091.80000	-0.0322	
1092.00000	-0.0322	
1092.20000	-0.0325	
1092.40000	-0.0325	
1092.60000	-0.0331	
1092.80000	-0.0327	
1093.00000	-0.0331	
1093.20000	-0.0331	
1093.40000	-0.0334	
1093.60000	-0.0337	
1093.80000	-0.0333	
1094.00000	-0.0336	
1094.20000	-0.0339	
1094.40000	-0.0339	
1094.60000	-0.0346	
1094.80000	-0.0345	
1095.00000	-0.0345	
1095.20000	-0.0346	
1095.40000	-0.0349	
1095.60000	-0.0349	
1095.80000	-0.0349	
1096.00000	-0.0352	
1096.20000	-0.0356	
1096.40000	-0.0356	
1096.60000	-0.0359	
1096.80000	-0.0363	
1097.00000	-0.0365	
1097.20000	-0.0366	
1097.40000	-0.0368	
1097.60000	-0.0365	
1097.80000	-0.0366	
1098.00000	-0.0366	
1098.20000	-0.0365	
1098.40000	-0.0362	
1098.60000	-0.0366	
1098.80000	-0.0366	
1099.00000	-0.0365	
1099.20000	-0.0365	
1099.40000	-0.0365	
1099.60000	-0.0362	
1099.80000	-0.0362	
1100.00000	-0.0360	
1100.20000	-0.0360	
1100.40000	-0.0360	
1100.60000	-0.0360	
1100.80000	-0.0362	
1101.00000	-0.0362	
1101.20000	-0.0362	
1101.40000	-0.0360	
1101.60000	-0.0359	
1101.80000	-0.0360	
1102.00000	-0.0359	
1102.20000	-0.0359	
1102.40000	-0.0357	
1102.60000	-0.0356	
1102.80000	-0.0352	
1103.00000	-0.0348	
1103.20000	-0.0349	
1103.40000	-0.0352	
1103.60000	-0.0348	
1103.80000	-0.0348	
1104.00000	-0.0346	
1104.20000	-0.0345	
1104.40000	-0.0342	
1104.60000	-0.0342	
1104.80000	-0.0342	
1105.00000	-0.0337	
1105.20000	-0.0333	
1105.40000	-0.0331	
1105.60000	-0.0327	
1105.80000	-0.0327	
1106.00000	-0.0325	
1106.20000	-0.0323	
1106.40000	-0.0322	
1106.60000	-0.0320	
1106.80000	-0.0319	
1107.00000	-0.0320	
1107.20000	-0.0322	
1107.40000	-0.0323	
1107.60000	-0.0322	
1107.80000	-0.0322	
1108.00000	-0.0322	
1108.20000	-0.0325	
1108.40000	-0.0323	
1108.60000	-0.0327	
1108.80000	-0.0328	
1109.00000	-0.0328	
1109.20000	-0.0331	
1109.40000	-0.0331	
1109.60000	-0.0333	
1109.80000	-0.0334	
1110.00000	-0.0336	
1110.20000	-0.0334	
1110.40000	-0.0336	
1110.60000	-0.0336	
1110.80000	-0.0339	
1111.00000	-0.0339	
1111.20000	-0.0340	
1111.40000	-0.0343	
1111.60000	-0.0342	
1111.80000	-0.0343	
1112.00000	-0.0345	
1112.20000	-0.0346	
1112.40000	-0.0349	
1112.60000	-0.0354	
1112.80000	-0.0352	
1113.00000	-0.0356	
1113.20000	-0.0357	
1113.40000	-0.0362	
1113.60000	-0.0363	
1113.80000	-0.0362	
1114.00000	-0.0365	
1114.20000	-0.0365	
1114.40000	-0.0369	
1114.60000	-0.0368	
1114.80000	-0.0369	
1115.00000	-0.0368	
1115.20000	-0.0368	
1115.40000	-0.0366	
1115.60000	-0.0366	
1115.80000	-0.0368	
1116.00000	-0.0366	
1116.20000	-0.0365	
1116.40000	-0.0365	
1116.60000	-0.0366	
1116.80000	-0.0362	
1117.00000	-0.0362	
1117.20000	-0.0363	
1117.40000	-0.0363	
1117.60000	-0.0362	
1117.80000	-0.0365	
1118.00000	-0.0362	
1118.20000	-0.0365	
1118.40000	-0.0362	
1118.60000	-0.0360	
1118.80000	-0.0359	
1119.00000	-0.0362	
1119.20000	-0.0359	
1119.40000	-0.0352	
1119.60000	-0.0354	
1119.80000	-0.0354	
1120.00000	-0.0352	
1120.20000	-0.0349	
1120.40000	-0.0349	
1120.60000	-0.0346	
1120.80000	-0.0345	
1121.00000	-0.0343	
1121.20000	-0.0342	
1121.40000	-0.0342	
1121.60000	-0.0342	
1121.80000	-0.0333	
1122.00000	-0.0334	
1122.20000	-0.0333	
1122.40000	-0.0333	
1122.60000	-0.0333	
1122.80000	-0.0328	
1123.00000	-0.0328	
1123.20000	-0.0327	
1123.40000	-0.0323	
1123.60000	-0.0328	
1123.80000	-0.0327	
1124.00000	-0.0328	
1124.20000	-0.0328	
1124.40000	-0.0331	
1124.60000	-0.0328	
1124.80000	-0.0331	
1125.00000	-0.0334	
1125.20000	-0.0331	
1125.40000	-0.0334	
1125.60000	-0.0334	
1125.80000	-0.0337	
1126.00000	-0.0336	
1126.20000	-0.0339	
1126.40000	-0.0340	
1126.60000	-0.0340	
1126.80000	-0.0340	
1127.00000	-0.0340	
1127.20000	-0.0342	
1127.40000	-0.0343	
1127.60000	-0.0348	
1127.80000	-0.0349	
1128.00000	-0.0352	
1128.20000	-0.0352	
1128.40000	-0.0349	
1128.60000	-0.0356	
1128.80000	-0.0356	
1129.00000	-0.0357	
1129.20000	-0.0356	
1129.40000	-0.0357	
1129.60000	-0.0362	
1129.80000	-0.0363	
1130.00000	-0.0366	
1130.20000	-0.0372	
1130.40000	-0.0374	
1130.60000	-0.0372	
1130.80000	-0.0374	
1131.00000	-0.0375	
1131.20000	-0.0374	
1131.40000	-0.0375	
1131.60000	-0.0375	
1131.80000	-0.0374	
1132.00000	-0.0377	
1132.20000	-0.0377	
1132.40000	-0.0377	
1132.60000	-0.0374	
1132.80000	-0.0374	
1133.00000	-0.0374	
1133.20000	-0.0374	
1133.40000	-0.0369	
1133.60000	-0.0369	
1133.80000	-0.0368	
1134.00000	-0.0368	
1134.20000	-0.0369	
1134.40000	-0.0368	
1134.60000	-0.0369	
1134.80000	-0.0372	
1135.00000	-0.0372	
1135.20000	-0.0365	
1135.40000	-0.0369	
1135.60000	-0.0366	
1135.80000	-0.0366	
1136.00000	-0.0363	
1136.20000	-0.0359	
1136.40000	-0.0357	
1136.60000	-0.0360	
1136.80000	-0.0357	
1137.00000	-0.0354	
1137.20000	-0.0352	
1137.40000	-0.0352	
1137.60000	-0.0352	
1137.80000	-0.0348	
1138.00000	-0.0349	
1138.20000	-0.0346	
1138.40000	-0.0343	
1138.60000	-0.0340	
1138.80000	-0.0339	
1139.00000	-0.0339	
1139.20000	-0.0339	
1139.40000	-0.0336	
1139.60000	-0.0334	
1139.80000	-0.0333	
1140.00000	-0.0333	
1140.20000	-0.0333	
1140.40000	-0.0334	
1140.60000	-0.0334	
1140.80000	-0.0336	
1141.00000	-0.0334	
1141.20000	-0.0333	
1141.40000	-0.0333	
1141.60000	-0.0339	
1141.80000	-0.0336	
1142.00000	-0.0339	
1142.20000	-0.0342	
1142.40000	-0.0339	
1142.60000	-0.0343	
1142.80000	-0.0345	
1143.00000	-0.0346	
1143.20000	-0.0345	
1143.40000	-0.0346	
1143.60000	-0.0348	
1143.80000	-0.0352	
1144.00000	-0.0352	
1144.20000	-0.0359	
1144.40000	-0.0354	
1144.60000	-0.0357	
1144.80000	-0.0363	
1145.00000	-0.0357	
1145.20000	-0.0362	
1145.40000	-0.0362	
1145.60000	-0.0363	
1145.80000	-0.0366	
1146.00000	-0.0369	
1146.20000	-0.0372	
1146.40000	-0.0372	
1146.60000	-0.0377	
1146.80000	-0.0380	
1147.00000	-0.0380	
1147.20000	-0.0381	
1147.40000	-0.0383	
1147.60000	-0.0380	
1147.80000	-0.0383	
1148.00000	-0.0381	
1148.20000	-0.0381	
1148.40000	-0.0380	
1148.60000	-0.0381	
1148.80000	-0.0380	
1149.00000	-0.0378	
1149.20000	-0.0380	
1149.40000	-0.0380	
1149.60000	-0.0378	
1149.80000	-0.0375	
1150.00000	-0.0375	
1150.20000	-0.0374	
1150.40000	-0.0374	
1150.60000	-0.0375	
1150.80000	-0.0375	
1151.00000	-0.0375	
1151.20000	-0.0375	
1151.40000	-0.0374	
1151.60000	-0.0372	
1151.80000	-0.0375	
1152.00000	-0.0369	
1152.20000	-0.0372	
1152.40000	-0.0369	
1152.60000	-0.0366	
1152.80000	-0.0365	
1153.00000	-0.0363	
1153.20000	-0.0362	
1153.40000	-0.0363	
1153.60000	-0.0359	
1153.80000	-0.0360	
1154.00000	-0.0359	
1154.20000	-0.0354	
1154.40000	-0.0356	
1154.60000	-0.0357	
1154.80000	-0.0352	
1155.00000	-0.0349	
1155.20000	-0.0348	
1155.40000	-0.0348	
1155.60000	-0.0346	
1155.80000	-0.0343	
1156.00000	-0.0346	
1156.20000	-0.0345	
1156.40000	-0.0340	
1156.60000	-0.0343	
1156.80000	-0.0342	
1157.00000	-0.0342	
1157.20000	-0.0343	
1157.40000	-0.0340	
1157.60000	-0.0342	
1157.80000	-0.0342	
1158.00000	-0.0345	
1158.20000	-0.0342	
1158.40000	-0.0348	
1158.60000	-0.0349	
1158.80000	-0.0346	
1159.00000	-0.0348	
1159.20000	-0.0352	
1159.40000	-0.0352	
1159.60000	-0.0348	
1159.80000	-0.0352	
1160.00000	-0.0354	
1160.20000	-0.0356	
1160.40000	-0.0357	
1160.60000	-0.0357	
1160.80000	-0.0359	
1161.00000	-0.0362	
1161.20000	-0.0362	
1161.40000	-0.0363	
1161.60000	-0.0362	
1161.80000	-0.0363	
1162.00000	-0.0365	
1162.20000	-0.0365	
1162.40000	-0.0366	
1162.60000	-0.0366	
1162.80000	-0.0372	
1163.00000	-0.0374	
1163.20000	-0.0375	
1163.40000	-0.0378	
1163.60000	-0.0381	
1163.80000	-0.0381	
1164.00000	-0.0378	
1164.20000	-0.0381	
1164.40000	-0.0385	
1164.60000	-0.0381	
1164.80000	-0.0381	
1165.00000	-0.0381	
1165.20000	-0.0383	
1165.40000	-0.0385	
1165.60000	-0.0381	
1165.80000	-0.0383	
1166.00000	-0.0383	
1166.20000	-0.0381	
1166.40000	-0.0375	
1166.60000	-0.0378	
1166.80000	-0.0378	
1167.00000	-0.0375	
1167.20000	-0.0374	
1167.40000	-0.0374	
1167.60000	-0.0375	
1167.80000	-0.0377	
1168.00000	-0.0372	
1168.20000	-0.0374	
1168.40000	-0.0372	
1168.60000	-0.0368	
1168.80000	-0.0372	
1169.00000	-0.0369	
1169.20000	-0.0365	
1169.40000	-0.0365	
1169.60000	-0.0362	
1169.80000	-0.0362	
1170.00000	-0.0357	
1170.20000	-0.0356	
1170.40000	-0.0356	
1170.60000	-0.0357	
1170.80000	-0.0354	
1171.00000	-0.0354	
1171.20000	-0.0349	
1171.40000	-0.0356	
1171.60000	-0.0349	
1171.80000	-0.0346	
1172.00000	-0.0342	
1172.20000	-0.0343	
1172.40000	-0.0342	
1172.60000	-0.0340	
1172.80000	-0.0339	
1173.00000	-0.0336	
1173.20000	-0.0334	
1173.40000	-0.0334	
1173.60000	-0.0334	
1173.80000	-0.0334	
1174.00000	-0.0334	
1174.20000	-0.0334	
1174.40000	-0.0333	
1174.60000	-0.0334	
1174.80000	-0.0334	
1175.00000	-0.0336	
1175.20000	-0.0336	
1175.40000	-0.0337	
1175.60000	-0.0339	
1175.80000	-0.0339	
1176.00000	-0.0343	
1176.20000	-0.0342	
1176.40000	-0.0343	
1176.60000	-0.0348	
1176.80000	-0.0348	
1177.00000	-0.0345	
1177.20000	-0.0352	
1177.40000	-0.0354	
1177.60000	-0.0352	
1177.80000	-0.0354	
1178.00000	-0.0354	
1178.20000	-0.0359	
1178.40000	-0.0360	
1178.60000	-0.0360	
1178.80000	-0.0362	
1179.00000	-0.0366	
1179.20000	-0.0362	
1179.40000	-0.0366	
1179.60000	-0.0368	
1179.80000	-0.0368	
1180.00000	-0.0375	
1180.20000	-0.0377	
1180.40000	-0.0380	
1180.60000	-0.0380	
1180.80000	-0.0381	
1181.00000	-0.0385	
1181.20000	-0.0385	
1181.40000	-0.0381	
1181.60000	-0.0381	
1181.80000	-0.0378	
1182.00000	-0.0380	
1182.20000	-0.0381	
1182.40000	-0.0381	
1182.60000	-0.0381	
1182.80000	-0.0377	
1183.00000	-0.0377	
1183.20000	-0.0377	
1183.40000	-0.0375	
1183.60000	-0.0377	
1183.80000	-0.0377	
1184.00000	-0.0374	
1184.20000	-0.0377	
1184.40000	-0.0375	
1184.60000	-0.0374	
1184.80000	-0.0375	
1185.00000	-0.0372	
1185.20000	-0.0374	
1185.40000	-0.0372	
1185.60000	-0.0372	
1185.80000	-0.0366	
1186.00000	-0.0365	
1186.20000	-0.0362	
1186.40000	-0.0363	
1186.60000	-0.0362	
1186.80000	-0.0357	
1187.00000	-0.0357	
1187.20000	-0.0357	
1187.40000	-0.0354	
1187.60000	-0.0348	
1187.80000	-0.0345	
1188.00000	-0.0345	
1188.20000	-0.0343	
1188.40000	-0.0340	
1188.60000	-0.0336	
1188.80000	-0.0337	
1189.00000	-0.0334	
1189.20000	-0.0333	
1189.40000	-0.0334	
1189.60000	-0.0331	
1189.80000	-0.0333	
1190.00000	-0.0328	
1190.20000	-0.0331	
1190.40000	-0.0334	
1190.60000	-0.0331	
1190.80000	-0.0328	
1191.00000	-0.0333	
1191.20000	-0.0333	
1191.40000	-0.0334	
1191.60000	-0.0334	
1191.80000	-0.0339	
1192.00000	-0.0339	
1192.20000	-0.0340	
1192.40000	-0.0339	
1192.60000	-0.0342	
1192.80000	-0.0340	
1193.00000	-0.0342	
1193.20000	-0.0342	
1193.40000	-0.0343	
1193.60000	-0.0345	
1193.80000	-0.0348	
1194.00000	-0.0348	
1194.20000	-0.0348	
1194.40000	-0.0352	
1194.60000	-0.0354	
1194.80000	-0.0352	
1195.00000	-0.0356	
1195.20000	-0.0356	
1195.40000	-0.0357	
1195.60000	-0.0359	
1195.80000	-0.0362	
1196.00000	-0.0363	
1196.20000	-0.0365	
1196.40000	-0.0368	
1196.60000	-0.0372	
1196.80000	-0.0374	
1197.00000	-0.0377	
1197.20000	-0.0377	
1197.40000	-0.0375	
1197.60000	-0.0380	
1197.80000	-0.0378	
1198.00000	-0.0378	
1198.20000	-0.0375	
1198.40000	-0.0375	
1198.60000	-0.0377	
1198.80000	-0.0377	
1199.00000	-0.0378	
1199.20000	-0.0378	
1199.40000	-0.0378	
1199.60000	-0.0377	
1199.80000	-0.0377	
1200.00000	-0.0369	
1200.20000	-0.0374	
1200.40000	-0.0375	
1200.60000	-0.0369	
1200.80000	-0.0374	
1201.00000	-0.0374	
1201.20000	-0.0372	
1201.40000	-0.0372	
1201.60000	-0.0375	
1201.80000	-0.0375	
1202.00000	-0.0372	
1202.20000	-0.0375	
1202.40000	-0.0374	
1202.60000	-0.0368	
1202.80000	-0.0365	
1203.00000	-0.0360	
1203.20000	-0.0360	
1203.40000	-0.0362	
1203.60000	-0.0360	
1203.80000	-0.0357	
1204.00000	-0.0356	
1204.20000	-0.0359	
1204.40000	-0.0356	
1204.60000	-0.0354	
1204.80000	-0.0354	
1205.00000	-0.0352	
1205.20000	-0.0343	
1205.40000	-0.0346	
1205.60000	-0.0348	
1205.80000	-0.0343	
1206.00000	-0.0343	
1206.20000	-0.0342	
1206.40000	-0.0339	
1206.60000	-0.0340	
1206.80000	-0.0340	
1207.00000	-0.0342	
1207.20000	-0.0339	
1207.40000	-0.0340	
1207.60000	-0.0339	
1207.80000	-0.0339	
1208.00000	-0.0339	
1208.20000	-0.0342	
1208.40000	-0.0340	
1208.60000	-0.0340	
1208.80000	-0.0345	
1209.00000	-0.0345	
1209.20000	-0.0345	
1209.40000	-0.0346	
1209.60000	-0.0349	
1209.80000	-0.0352	
1210.00000	-0.0346	
1210.20000	-0.0356	
1210.40000	-0.0357	
1210.60000	-0.0357	
1210.80000	-0.0360	
1211.00000	-0.0356	
1211.20000	-0.0357	
1211.40000	-0.0360	
1211.60000	-0.0362	
1211.80000	-0.0365	
1212.00000	-0.0365	
1212.20000	-0.0363	
1212.40000	-0.0368	
1212.60000	-0.0369	
1212.80000	-0.0372	
1213.00000	-0.0374	
1213.20000	-0.0377	
1213.40000	-0.0381	
1213.60000	-0.0381	
1213.80000	-0.0378	
1214.00000	-0.0381	
1214.20000	-0.0383	
1214.40000	-0.0383	
1214.60000	-0.0386	
1214.80000	-0.0385	
1215.00000	-0.0383	
1215.20000	-0.0381	
1215.40000	-0.0383	
1215.60000	-0.0383	
1215.80000	-0.0381	
1216.00000	-0.0380	
1216.20000	-0.0380	
1216.40000	-0.0375	
1216.60000	-0.0377	
1216.80000	-0.0375	
1217.00000	-0.0375	
1217.20000	-0.0374	
1217.40000	-0.0374	
1217.60000	-0.0375	
1217.80000	-0.0378	
1218.00000	-0.0377	
1218.20000	-0.0375	
1218.40000	-0.0375	
1218.60000	-0.0375	
1218.80000	-0.0375	
1219.00000	-0.0374	
1219.20000	-0.0366	
1219.40000	-0.0368	
1219.60000	-0.0365	
1219.80000	-0.0365	
1220.00000	-0.0366	
1220.20000	-0.0360	
1220.40000	-0.0362	
1220.60000	-0.0362	
1220.80000	-0.0357	
1221.00000	-0.0356	
1221.20000	-0.0354	
1221.40000	-0.0354	
1221.60000	-0.0349	
1221.80000	-0.0346	
1222.00000	-0.0343	
1222.20000	-0.0345	
1222.40000	-0.0342	
1222.60000	-0.0342	
1222.80000	-0.0339	
1223.00000	-0.0337	
1223.20000	-0.0337	
1223.40000	-0.0337	
1223.60000	-0.0337	
1223.80000	-0.0336	
1224.00000	-0.0339	
1224.20000	-0.0337	
1224.40000	-0.0336	
1224.60000	-0.0337	
1224.80000	-0.0339	
1225.00000	-0.0343	
1225.20000	-0.0339	
1225.40000	-0.0345	
1225.60000	-0.0343	
1225.80000	-0.0343	
1226.00000	-0.0345	
1226.20000	-0.0345	
1226.40000	-0.0345	
1226.60000	-0.0349	
1226.80000	-0.0352	
1227.00000	-0.0352	
1227.20000	-0.0354	
1227.40000	-0.0352	
1227.60000	-0.0352	
1227.80000	-0.0354	
1228.00000	-0.0352	
1228.20000	-0.0354	
1228.40000	-0.0357	
1228.60000	-0.0356	
1228.80000	-0.0359	
1229.00000	-0.0359	
1229.20000	-0.0359	
1229.40000	-0.0360	
1229.60000	-0.0366	
1229.80000	-0.0369	
1230.00000	-0.0369	
1230.20000	-0.0374	
1230.40000	-0.0375	
1230.60000	-0.0375	
1230.80000	-0.0377	
1231.00000	-0.0375	
1231.20000	-0.0378	
1231.40000	-0.0377	
1231.60000	-0.0375	
1231.80000	-0.0375	
1232.00000	-0.0375	
1232.20000	-0.0375	
1232.40000	-0.0375	
1232.60000	-0.0375	
1232.80000	-0.0374	
1233.00000	-0.0372	
1233.20000	-0.0372	
1233.40000	-0.0369	
1233.60000	-0.0366	
1233.80000	-0.0365	
1234.00000	-0.0366	
1234.20000	-0.0363	
1234.40000	-0.0365	
1234.60000	-0.0365	
1234.80000	-0.0363	
1235.00000	-0.0366	
1235.20000	-0.0363	
1235.40000	-0.0365	
1235.60000	-0.0363	
1235.80000	-0.0362	
1236.00000	-0.0359	
1236.20000	-0.0352	
1236.40000	-0.0354	
1236.60000	-0.0354	
1236.80000	-0.0352	
1237.00000	-0.0348	
