______________________	______________________	______________________	______________________	______________________	______________________	______________________	______________________	______________________	
data file :	C:\emka\iox_2_9_5_73\data\20190517-piga.mkt
saved on :	
______________________	______________________	______________________	______________________	______________________	______________________	______________________	______________________	______________________	
printed on :	june  18, 2019, at  14: 33: 34
export mode :	to text file
print author :	no_logged_user
print com :	no available comment
ecgAuto version :	3.3.5.6 []
original sample freq (Hz) :
	 ECG	5000
	 Pig Aortic Pressure	1000
	 Cam Fire	500
	 Bloom A	500
	 Bloom B	500
	 CFR	1000
undersampling factor :		1
print sample freq (Hz) :		5000
______________________	______________________	______________________	______________________	______________________	______________________	______________________	______________________	______________________	

time ms	 ECG	
	V	


...................	...................	...................	...................	...................	...................	...................	...................	...................	...................	...................	...................	...................	
zone-start :	02-400	time duration s :	00.00000	data duration s :	15.00000	stream section :	1
in-period :	op 1, p 1, r 1, p[r] 1	Noname #1	0.00e+00	
start period-time :	  00:38:27.149
start CPU time :	may  17, 2019, 13: 55: 15
start site-time :	  00:38:27.150
...................	...................	...................	...................	...................	...................	...................	...................	...................	...................	...................	...................	...................	
0.20000	-0.0407	
0.40000	-0.0407	
0.60000	-0.0403	
0.80000	-0.0407	
1.00000	-0.0409	
1.20000	-0.0407	
1.40000	-0.0407	
1.60000	-0.0407	
1.80000	-0.0406	
2.00000	-0.0409	
2.20000	-0.0407	
2.40000	-0.0407	
2.60000	-0.0407	
2.80000	-0.0406	
3.00000	-0.0407	
3.20000	-0.0409	
3.40000	-0.0407	
3.60000	-0.0412	
3.80000	-0.0412	
4.00000	-0.0412	
4.20000	-0.0409	
4.40000	-0.0407	
4.60000	-0.0409	
4.80000	-0.0407	
5.00000	-0.0407	
5.20000	-0.0409	
5.40000	-0.0410	
5.60000	-0.0409	
5.80000	-0.0407	
6.00000	-0.0406	
6.20000	-0.0404	
6.40000	-0.0406	
6.60000	-0.0409	
6.80000	-0.0406	
7.00000	-0.0404	
7.20000	-0.0404	
7.40000	-0.0406	
7.60000	-0.0406	
7.80000	-0.0407	
8.00000	-0.0409	
8.20000	-0.0407	
8.40000	-0.0410	
8.60000	-0.0407	
8.80000	-0.0409	
9.00000	-0.0407	
9.20000	-0.0409	
9.40000	-0.0415	
9.60000	-0.0412	
9.80000	-0.0412	
10.00000	-0.0412	
10.20000	-0.0412	
10.40000	-0.0412	
10.60000	-0.0410	
10.80000	-0.0410	
11.00000	-0.0412	
11.20000	-0.0415	
11.40000	-0.0412	
11.60000	-0.0410	
11.80000	-0.0410	
12.00000	-0.0410	
12.20000	-0.0410	
12.40000	-0.0409	
12.60000	-0.0410	
12.80000	-0.0410	
13.00000	-0.0412	
13.20000	-0.0410	
13.40000	-0.0410	
13.60000	-0.0412	
13.80000	-0.0410	
14.00000	-0.0410	
14.20000	-0.0412	
14.40000	-0.0410	
14.60000	-0.0412	
14.80000	-0.0410	
15.00000	-0.0410	
15.20000	-0.0410	
15.40000	-0.0410	
15.60000	-0.0410	
15.80000	-0.0412	
16.00000	-0.0410	
16.20000	-0.0410	
16.40000	-0.0410	
16.60000	-0.0407	
16.80000	-0.0409	
17.00000	-0.0409	
17.20000	-0.0409	
17.40000	-0.0409	
17.60000	-0.0407	
17.80000	-0.0410	
18.00000	-0.0412	
18.20000	-0.0415	
18.40000	-0.0415	
18.60000	-0.0417	
18.80000	-0.0415	
19.00000	-0.0418	
19.20000	-0.0420	
19.40000	-0.0420	
19.60000	-0.0420	
19.80000	-0.0418	
20.00000	-0.0420	
20.20000	-0.0420	
20.40000	-0.0421	
20.60000	-0.0421	
20.80000	-0.0420	
21.00000	-0.0418	
21.20000	-0.0417	
21.40000	-0.0417	
21.60000	-0.0417	
21.80000	-0.0420	
22.00000	-0.0418	
22.20000	-0.0415	
22.40000	-0.0415	
22.60000	-0.0415	
22.80000	-0.0412	
23.00000	-0.0412	
23.20000	-0.0410	
23.40000	-0.0412	
23.60000	-0.0409	
23.80000	-0.0410	
24.00000	-0.0409	
24.20000	-0.0410	
24.40000	-0.0412	
24.60000	-0.0409	
24.80000	-0.0409	
25.00000	-0.0410	
25.20000	-0.0409	
25.40000	-0.0407	
25.60000	-0.0409	
25.80000	-0.0410	
26.00000	-0.0410	
26.20000	-0.0409	
26.40000	-0.0412	
26.60000	-0.0410	
26.80000	-0.0412	
27.00000	-0.0409	
27.20000	-0.0409	
27.40000	-0.0407	
27.60000	-0.0410	
27.80000	-0.0412	
28.00000	-0.0410	
28.20000	-0.0412	
28.40000	-0.0407	
28.60000	-0.0412	
28.80000	-0.0410	
29.00000	-0.0407	
29.20000	-0.0409	
29.40000	-0.0409	
29.60000	-0.0407	
29.80000	-0.0407	
30.00000	-0.0412	
30.20000	-0.0410	
30.40000	-0.0410	
30.60000	-0.0412	
30.80000	-0.0412	
31.00000	-0.0410	
31.20000	-0.0412	
31.40000	-0.0410	
31.60000	-0.0410	
31.80000	-0.0410	
32.00000	-0.0409	
32.20000	-0.0410	
32.40000	-0.0407	
32.60000	-0.0409	
32.80000	-0.0406	
33.00000	-0.0409	
33.20000	-0.0407	
33.40000	-0.0410	
33.60000	-0.0409	
33.80000	-0.0409	
34.00000	-0.0409	
34.20000	-0.0412	
34.40000	-0.0412	
34.60000	-0.0409	
34.80000	-0.0409	
35.00000	-0.0410	
35.20000	-0.0409	
35.40000	-0.0409	
35.60000	-0.0412	
35.80000	-0.0409	
36.00000	-0.0409	
36.20000	-0.0409	
36.40000	-0.0410	
36.60000	-0.0409	
36.80000	-0.0415	
37.00000	-0.0412	
37.20000	-0.0415	
37.40000	-0.0415	
37.60000	-0.0412	
37.80000	-0.0410	
38.00000	-0.0409	
38.20000	-0.0410	
38.40000	-0.0412	
38.60000	-0.0412	
38.80000	-0.0412	
39.00000	-0.0409	
39.20000	-0.0407	
39.40000	-0.0409	
39.60000	-0.0407	
39.80000	-0.0410	
40.00000	-0.0409	
40.20000	-0.0409	
40.40000	-0.0407	
40.60000	-0.0415	
40.80000	-0.0410	
41.00000	-0.0407	
41.20000	-0.0410	
41.40000	-0.0410	
41.60000	-0.0410	
41.80000	-0.0410	
42.00000	-0.0409	
42.20000	-0.0407	
42.40000	-0.0409	
42.60000	-0.0412	
42.80000	-0.0409	
43.00000	-0.0412	
43.20000	-0.0409	
43.40000	-0.0410	
43.60000	-0.0407	
43.80000	-0.0409	
44.00000	-0.0404	
44.20000	-0.0404	
44.40000	-0.0404	
44.60000	-0.0407	
44.80000	-0.0406	
45.00000	-0.0404	
45.20000	-0.0406	
45.40000	-0.0404	
45.60000	-0.0403	
45.80000	-0.0403	
46.00000	-0.0404	
46.20000	-0.0401	
46.40000	-0.0403	
46.60000	-0.0403	
46.80000	-0.0406	
47.00000	-0.0406	
47.20000	-0.0406	
47.40000	-0.0406	
47.60000	-0.0406	
47.80000	-0.0407	
48.00000	-0.0409	
48.20000	-0.0410	
48.40000	-0.0409	
48.60000	-0.0412	
48.80000	-0.0410	
49.00000	-0.0410	
49.20000	-0.0410	
49.40000	-0.0412	
49.60000	-0.0409	
49.80000	-0.0410	
50.00000	-0.0410	
50.20000	-0.0409	
50.40000	-0.0412	
50.60000	-0.0410	
50.80000	-0.0410	
51.00000	-0.0412	
51.20000	-0.0410	
51.40000	-0.0412	
51.60000	-0.0410	
51.80000	-0.0410	
52.00000	-0.0415	
52.20000	-0.0417	
52.40000	-0.0410	
52.60000	-0.0412	
52.80000	-0.0409	
53.00000	-0.0410	
53.20000	-0.0415	
53.40000	-0.0415	
53.60000	-0.0417	
53.80000	-0.0420	
54.00000	-0.0420	
54.20000	-0.0418	
54.40000	-0.0417	
54.60000	-0.0417	
54.80000	-0.0420	
55.00000	-0.0417	
55.20000	-0.0415	
55.40000	-0.0417	
55.60000	-0.0412	
55.80000	-0.0410	
56.00000	-0.0409	
56.20000	-0.0406	
56.40000	-0.0407	
56.60000	-0.0406	
56.80000	-0.0406	
57.00000	-0.0406	
57.20000	-0.0401	
57.40000	-0.0404	
57.60000	-0.0404	
57.80000	-0.0401	
58.00000	-0.0401	
58.20000	-0.0401	
58.40000	-0.0401	
58.60000	-0.0397	
58.80000	-0.0395	
59.00000	-0.0397	
59.20000	-0.0398	
59.40000	-0.0394	
59.60000	-0.0394	
59.80000	-0.0391	
60.00000	-0.0391	
60.20000	-0.0391	
60.40000	-0.0385	
60.60000	-0.0381	
60.80000	-0.0380	
61.00000	-0.0375	
61.20000	-0.0378	
61.40000	-0.0375	
61.60000	-0.0374	
61.80000	-0.0368	
62.00000	-0.0365	
62.20000	-0.0360	
62.40000	-0.0360	
62.60000	-0.0348	
62.80000	-0.0345	
63.00000	-0.0340	
63.20000	-0.0331	
63.40000	-0.0323	
63.60000	-0.0316	
63.80000	-0.0310	
64.00000	-0.0302	
64.20000	-0.0291	
64.40000	-0.0282	
64.60000	-0.0275	
64.80000	-0.0264	
65.00000	-0.0255	
65.20000	-0.0247	
65.40000	-0.0240	
65.60000	-0.0232	
65.80000	-0.0226	
66.00000	-0.0221	
66.20000	-0.0214	
66.40000	-0.0208	
66.60000	-0.0203	
66.80000	-0.0200	
67.00000	-0.0198	
67.20000	-0.0194	
67.40000	-0.0192	
67.60000	-0.0194	
67.80000	-0.0191	
68.00000	-0.0188	
68.20000	-0.0186	
68.40000	-0.0183	
68.60000	-0.0175	
68.80000	-0.0168	
69.00000	-0.0163	
69.20000	-0.0156	
69.40000	-0.0146	
69.60000	-0.0136	
69.80000	-0.0128	
70.00000	-0.0119	
70.20000	-0.0110	
70.40000	-0.0102	
70.60000	-0.0093	
70.80000	-0.0087	
71.00000	-0.0076	
71.20000	-0.0064	
71.40000	-0.0056	
71.60000	-0.0043	
71.80000	-0.0027	
72.00000	-0.0009	
72.20000	 0.0005	
72.40000	 0.0029	
72.60000	 0.0060	
72.80000	 0.0096	
73.00000	 0.0140	
73.20000	 0.0192	
73.40000	 0.0252	
73.60000	 0.0328	
73.80000	 0.0409	
74.00000	 0.0504	
74.20000	 0.0601	
74.40000	 0.0713	
74.60000	 0.0826	
74.80000	 0.0943	
75.00000	 0.1062	
75.20000	 0.1181	
75.40000	 0.1303	
75.60000	 0.1416	
75.80000	 0.1526	
76.00000	 0.1628	
76.20000	 0.1721	
76.40000	 0.1810	
76.60000	 0.1889	
76.80000	 0.1955	
77.00000	 0.2022	
77.20000	 0.2075	
77.40000	 0.2116	
77.60000	 0.2145	
77.80000	 0.2167	
78.00000	 0.2174	
78.20000	 0.2176	
78.40000	 0.2164	
78.60000	 0.2144	
78.80000	 0.2115	
79.00000	 0.2081	
79.20000	 0.2039	
79.40000	 0.1988	
79.60000	 0.1933	
79.80000	 0.1874	
80.00000	 0.1804	
80.20000	 0.1736	
80.40000	 0.1665	
80.60000	 0.1588	
80.80000	 0.1509	
81.00000	 0.1431	
81.20000	 0.1349	
81.40000	 0.1268	
81.60000	 0.1190	
81.80000	 0.1112	
82.00000	 0.1041	
82.20000	 0.0967	
82.40000	 0.0902	
82.60000	 0.0835	
82.80000	 0.0777	
83.00000	 0.0719	
83.20000	 0.0659	
83.40000	 0.0607	
83.60000	 0.0563	
83.80000	 0.0516	
84.00000	 0.0478	
84.20000	 0.0439	
84.40000	 0.0403	
84.60000	 0.0374	
84.80000	 0.0346	
85.00000	 0.0323	
85.20000	 0.0304	
85.40000	 0.0288	
85.60000	 0.0272	
85.80000	 0.0259	
86.00000	 0.0250	
86.20000	 0.0246	
86.40000	 0.0241	
86.60000	 0.0241	
86.80000	 0.0244	
87.00000	 0.0249	
87.20000	 0.0255	
87.40000	 0.0264	
87.60000	 0.0276	
87.80000	 0.0291	
88.00000	 0.0304	
88.20000	 0.0320	
88.40000	 0.0340	
88.60000	 0.0354	
88.80000	 0.0371	
89.00000	 0.0388	
89.20000	 0.0404	
89.40000	 0.0420	
89.60000	 0.0438	
89.80000	 0.0446	
90.00000	 0.0459	
90.20000	 0.0476	
90.40000	 0.0487	
90.60000	 0.0499	
90.80000	 0.0511	
91.00000	 0.0525	
91.20000	 0.0540	
91.40000	 0.0554	
91.60000	 0.0571	
91.80000	 0.0591	
92.00000	 0.0604	
92.20000	 0.0618	
92.40000	 0.0636	
92.60000	 0.0652	
92.80000	 0.0662	
93.00000	 0.0671	
93.20000	 0.0682	
93.40000	 0.0691	
93.60000	 0.0696	
93.80000	 0.0702	
94.00000	 0.0711	
94.20000	 0.0714	
94.40000	 0.0716	
94.60000	 0.0717	
94.80000	 0.0720	
95.00000	 0.0719	
95.20000	 0.0719	
95.40000	 0.0711	
95.60000	 0.0702	
95.80000	 0.0694	
96.00000	 0.0679	
96.20000	 0.0661	
96.40000	 0.0638	
96.60000	 0.0612	
96.80000	 0.0578	
97.00000	 0.0542	
97.20000	 0.0507	
97.40000	 0.0465	
97.60000	 0.0424	
97.80000	 0.0380	
98.00000	 0.0334	
98.20000	 0.0291	
98.40000	 0.0250	
98.60000	 0.0204	
98.80000	 0.0162	
99.00000	 0.0117	
99.20000	 0.0078	
99.40000	 0.0040	
99.60000	 0.0000	
99.80000	-0.0037	
100.00000	-0.0073	
100.20000	-0.0104	
100.40000	-0.0137	
100.60000	-0.0171	
100.80000	-0.0206	
101.00000	-0.0238	
101.20000	-0.0267	
101.40000	-0.0296	
101.60000	-0.0322	
101.80000	-0.0346	
102.00000	-0.0372	
102.20000	-0.0394	
102.40000	-0.0412	
102.60000	-0.0429	
102.80000	-0.0443	
103.00000	-0.0458	
103.20000	-0.0470	
103.40000	-0.0481	
103.60000	-0.0490	
103.80000	-0.0493	
104.00000	-0.0496	
104.20000	-0.0504	
104.40000	-0.0500	
104.60000	-0.0500	
104.80000	-0.0504	
105.00000	-0.0504	
105.20000	-0.0504	
105.40000	-0.0505	
105.60000	-0.0507	
105.80000	-0.0505	
106.00000	-0.0507	
106.20000	-0.0507	
106.40000	-0.0513	
106.60000	-0.0516	
106.80000	-0.0519	
107.00000	-0.0526	
107.20000	-0.0529	
107.40000	-0.0537	
107.60000	-0.0546	
107.80000	-0.0551	
108.00000	-0.0560	
108.20000	-0.0569	
108.40000	-0.0577	
108.60000	-0.0591	
108.80000	-0.0607	
109.00000	-0.0618	
109.20000	-0.0635	
109.40000	-0.0653	
109.60000	-0.0667	
109.80000	-0.0684	
110.00000	-0.0705	
110.20000	-0.0722	
110.40000	-0.0735	
110.60000	-0.0751	
110.80000	-0.0763	
111.00000	-0.0781	
111.20000	-0.0793	
111.40000	-0.0812	
111.60000	-0.0826	
111.80000	-0.0835	
112.00000	-0.0851	
112.20000	-0.0864	
112.40000	-0.0877	
112.60000	-0.0891	
112.80000	-0.0900	
113.00000	-0.0911	
113.20000	-0.0917	
113.40000	-0.0932	
113.60000	-0.0940	
113.80000	-0.0943	
114.00000	-0.0949	
114.20000	-0.0955	
114.40000	-0.0960	
114.60000	-0.0967	
114.80000	-0.0972	
115.00000	-0.0980	
115.20000	-0.0984	
115.40000	-0.0990	
115.60000	-0.0992	
115.80000	-0.0998	
116.00000	-0.1003	
116.20000	-0.1010	
116.40000	-0.1012	
116.60000	-0.1016	
116.80000	-0.1021	
117.00000	-0.1022	
117.20000	-0.1025	
117.40000	-0.1030	
117.60000	-0.1031	
117.80000	-0.1036	
118.00000	-0.1038	
118.20000	-0.1036	
118.40000	-0.1038	
118.60000	-0.1039	
118.80000	-0.1038	
119.00000	-0.1038	
119.20000	-0.1036	
119.40000	-0.1038	
119.60000	-0.1038	
119.80000	-0.1039	
120.00000	-0.1039	
120.20000	-0.1041	
120.40000	-0.1042	
120.60000	-0.1044	
120.80000	-0.1044	
121.00000	-0.1044	
121.20000	-0.1044	
121.40000	-0.1045	
121.60000	-0.1051	
121.80000	-0.1054	
122.00000	-0.1054	
122.20000	-0.1054	
122.40000	-0.1057	
122.60000	-0.1059	
122.80000	-0.1056	
123.00000	-0.1060	
123.20000	-0.1060	
123.40000	-0.1057	
123.60000	-0.1057	
123.80000	-0.1060	
124.00000	-0.1059	
124.20000	-0.1057	
124.40000	-0.1056	
124.60000	-0.1051	
124.80000	-0.1048	
125.00000	-0.1048	
125.20000	-0.1045	
125.40000	-0.1042	
125.60000	-0.1038	
125.80000	-0.1036	
126.00000	-0.1033	
126.20000	-0.1024	
126.40000	-0.1024	
126.60000	-0.1015	
126.80000	-0.1009	
127.00000	-0.1003	
127.20000	-0.0998	
127.40000	-0.0990	
127.60000	-0.0984	
127.80000	-0.0984	
128.00000	-0.0983	
128.20000	-0.0978	
128.40000	-0.0970	
128.60000	-0.0963	
128.80000	-0.0958	
129.00000	-0.0952	
129.20000	-0.0949	
129.40000	-0.0946	
129.60000	-0.0938	
129.80000	-0.0934	
130.00000	-0.0932	
130.20000	-0.0931	
130.40000	-0.0926	
130.60000	-0.0925	
130.80000	-0.0920	
131.00000	-0.0922	
131.20000	-0.0919	
131.40000	-0.0916	
131.60000	-0.0912	
131.80000	-0.0916	
132.00000	-0.0912	
132.20000	-0.0912	
132.40000	-0.0911	
132.60000	-0.0906	
132.80000	-0.0905	
133.00000	-0.0906	
133.20000	-0.0908	
133.40000	-0.0908	
133.60000	-0.0909	
133.80000	-0.0911	
134.00000	-0.0911	
134.20000	-0.0917	
134.40000	-0.0919	
134.60000	-0.0920	
134.80000	-0.0926	
135.00000	-0.0931	
135.20000	-0.0934	
135.40000	-0.0938	
135.60000	-0.0941	
135.80000	-0.0941	
136.00000	-0.0943	
136.20000	-0.0948	
136.40000	-0.0952	
136.60000	-0.0954	
136.80000	-0.0958	
137.00000	-0.0963	
137.20000	-0.0964	
137.40000	-0.0969	
137.60000	-0.0969	
137.80000	-0.0972	
138.00000	-0.0975	
138.20000	-0.0980	
138.40000	-0.0984	
138.60000	-0.0987	
138.80000	-0.0990	
139.00000	-0.0992	
139.20000	-0.0998	
139.40000	-0.0998	
139.60000	-0.1001	
139.80000	-0.1004	
140.00000	-0.1010	
140.20000	-0.1015	
140.40000	-0.1013	
140.60000	-0.1018	
140.80000	-0.1025	
141.00000	-0.1031	
141.20000	-0.1035	
141.40000	-0.1036	
141.60000	-0.1041	
141.80000	-0.1045	
142.00000	-0.1047	
142.20000	-0.1051	
142.40000	-0.1053	
142.60000	-0.1057	
142.80000	-0.1060	
143.00000	-0.1067	
143.20000	-0.1073	
143.40000	-0.1076	
143.60000	-0.1080	
143.80000	-0.1082	
144.00000	-0.1083	
144.20000	-0.1083	
144.40000	-0.1088	
144.60000	-0.1091	
144.80000	-0.1096	
145.00000	-0.1099	
145.20000	-0.1100	
145.40000	-0.1103	
145.60000	-0.1102	
145.80000	-0.1100	
146.00000	-0.1099	
146.20000	-0.1099	
146.40000	-0.1099	
146.60000	-0.1096	
146.80000	-0.1096	
147.00000	-0.1096	
147.20000	-0.1097	
147.40000	-0.1097	
147.60000	-0.1091	
147.80000	-0.1091	
148.00000	-0.1091	
148.20000	-0.1094	
148.40000	-0.1096	
148.60000	-0.1096	
148.80000	-0.1094	
149.00000	-0.1096	
149.20000	-0.1097	
149.40000	-0.1097	
149.60000	-0.1099	
149.80000	-0.1102	
150.00000	-0.1105	
150.20000	-0.1103	
150.40000	-0.1106	
150.60000	-0.1106	
150.80000	-0.1106	
151.00000	-0.1109	
151.20000	-0.1112	
151.40000	-0.1115	
151.60000	-0.1117	
151.80000	-0.1120	
152.00000	-0.1122	
152.20000	-0.1122	
152.40000	-0.1125	
152.60000	-0.1125	
152.80000	-0.1125	
153.00000	-0.1120	
153.20000	-0.1123	
153.40000	-0.1120	
153.60000	-0.1122	
153.80000	-0.1122	
154.00000	-0.1120	
154.20000	-0.1118	
154.40000	-0.1115	
154.60000	-0.1112	
154.80000	-0.1111	
155.00000	-0.1111	
155.20000	-0.1111	
155.40000	-0.1106	
155.60000	-0.1102	
155.80000	-0.1100	
156.00000	-0.1099	
156.20000	-0.1096	
156.40000	-0.1089	
156.60000	-0.1089	
156.80000	-0.1088	
157.00000	-0.1085	
157.20000	-0.1083	
157.40000	-0.1082	
157.60000	-0.1080	
157.80000	-0.1082	
158.00000	-0.1080	
158.20000	-0.1073	
158.40000	-0.1073	
158.60000	-0.1070	
158.80000	-0.1067	
159.00000	-0.1062	
159.20000	-0.1060	
159.40000	-0.1059	
159.60000	-0.1053	
159.80000	-0.1048	
160.00000	-0.1053	
160.20000	-0.1047	
160.40000	-0.1041	
160.60000	-0.1038	
160.80000	-0.1031	
161.00000	-0.1031	
161.20000	-0.1031	
161.40000	-0.1025	
161.60000	-0.1022	
161.80000	-0.1013	
162.00000	-0.1012	
162.20000	-0.1006	
162.40000	-0.1003	
162.60000	-0.0998	
162.80000	-0.0996	
163.00000	-0.0993	
163.20000	-0.0987	
163.40000	-0.0981	
163.60000	-0.0981	
163.80000	-0.0975	
164.00000	-0.0972	
164.20000	-0.0969	
164.40000	-0.0961	
164.60000	-0.0955	
164.80000	-0.0951	
165.00000	-0.0946	
165.20000	-0.0940	
165.40000	-0.0938	
165.60000	-0.0934	
165.80000	-0.0928	
166.00000	-0.0922	
166.20000	-0.0917	
166.40000	-0.0911	
166.60000	-0.0908	
166.80000	-0.0903	
167.00000	-0.0899	
167.20000	-0.0893	
167.40000	-0.0888	
167.60000	-0.0885	
167.80000	-0.0879	
168.00000	-0.0873	
168.20000	-0.0867	
168.40000	-0.0864	
168.60000	-0.0858	
168.80000	-0.0853	
169.00000	-0.0850	
169.20000	-0.0844	
169.40000	-0.0839	
169.60000	-0.0832	
169.80000	-0.0830	
170.00000	-0.0826	
170.20000	-0.0815	
170.40000	-0.0813	
170.60000	-0.0807	
170.80000	-0.0803	
171.00000	-0.0797	
171.20000	-0.0793	
171.40000	-0.0789	
171.60000	-0.0784	
171.80000	-0.0777	
172.00000	-0.0775	
172.20000	-0.0771	
172.40000	-0.0763	
172.60000	-0.0757	
172.80000	-0.0752	
173.00000	-0.0746	
173.20000	-0.0742	
173.40000	-0.0737	
173.60000	-0.0729	
173.80000	-0.0728	
174.00000	-0.0722	
174.20000	-0.0722	
174.40000	-0.0716	
174.60000	-0.0710	
174.80000	-0.0708	
175.00000	-0.0703	
175.20000	-0.0697	
175.40000	-0.0696	
175.60000	-0.0688	
175.80000	-0.0684	
176.00000	-0.0684	
176.20000	-0.0677	
176.40000	-0.0673	
176.60000	-0.0670	
176.80000	-0.0661	
177.00000	-0.0658	
177.20000	-0.0655	
177.40000	-0.0653	
177.60000	-0.0645	
177.80000	-0.0641	
178.00000	-0.0644	
178.20000	-0.0642	
178.40000	-0.0632	
178.60000	-0.0632	
178.80000	-0.0629	
179.00000	-0.0621	
179.20000	-0.0618	
179.40000	-0.0610	
179.60000	-0.0610	
179.80000	-0.0603	
180.00000	-0.0600	
180.20000	-0.0600	
180.40000	-0.0595	
180.60000	-0.0589	
180.80000	-0.0589	
181.00000	-0.0578	
181.20000	-0.0575	
181.40000	-0.0571	
181.60000	-0.0566	
181.80000	-0.0560	
182.00000	-0.0560	
182.20000	-0.0558	
182.40000	-0.0551	
182.60000	-0.0546	
182.80000	-0.0545	
183.00000	-0.0539	
183.20000	-0.0537	
183.40000	-0.0533	
183.60000	-0.0531	
183.80000	-0.0528	
184.00000	-0.0522	
184.20000	-0.0519	
184.40000	-0.0516	
184.60000	-0.0510	
184.80000	-0.0507	
185.00000	-0.0502	
185.20000	-0.0497	
185.40000	-0.0494	
185.60000	-0.0490	
185.80000	-0.0487	
186.00000	-0.0485	
186.20000	-0.0479	
186.40000	-0.0475	
186.60000	-0.0471	
186.80000	-0.0467	
187.00000	-0.0459	
187.20000	-0.0455	
187.40000	-0.0453	
187.60000	-0.0444	
187.80000	-0.0441	
188.00000	-0.0436	
188.20000	-0.0433	
188.40000	-0.0430	
188.60000	-0.0429	
188.80000	-0.0426	
189.00000	-0.0423	
189.20000	-0.0420	
189.40000	-0.0420	
189.60000	-0.0417	
189.80000	-0.0415	
190.00000	-0.0417	
190.20000	-0.0409	
190.40000	-0.0409	
190.60000	-0.0412	
190.80000	-0.0410	
191.00000	-0.0415	
191.20000	-0.0412	
191.40000	-0.0415	
191.60000	-0.0412	
191.80000	-0.0415	
192.00000	-0.0412	
192.20000	-0.0412	
192.40000	-0.0417	
192.60000	-0.0418	
192.80000	-0.0418	
193.00000	-0.0420	
193.20000	-0.0420	
193.40000	-0.0420	
193.60000	-0.0418	
193.80000	-0.0421	
194.00000	-0.0417	
194.20000	-0.0417	
194.40000	-0.0421	
194.60000	-0.0421	
194.80000	-0.0426	
195.00000	-0.0426	
195.20000	-0.0424	
195.40000	-0.0421	
195.60000	-0.0420	
195.80000	-0.0418	
196.00000	-0.0421	
196.20000	-0.0420	
196.40000	-0.0418	
196.60000	-0.0415	
196.80000	-0.0417	
197.00000	-0.0417	
197.20000	-0.0412	
197.40000	-0.0412	
197.60000	-0.0412	
197.80000	-0.0407	
198.00000	-0.0410	
198.20000	-0.0407	
198.40000	-0.0407	
198.60000	-0.0407	
198.80000	-0.0403	
199.00000	-0.0404	
199.20000	-0.0403	
199.40000	-0.0401	
199.60000	-0.0400	
199.80000	-0.0397	
200.00000	-0.0398	
200.20000	-0.0397	
200.40000	-0.0397	
200.60000	-0.0395	
200.80000	-0.0394	
201.00000	-0.0394	
201.20000	-0.0391	
201.40000	-0.0388	
201.60000	-0.0388	
201.80000	-0.0385	
202.00000	-0.0380	
202.20000	-0.0383	
202.40000	-0.0378	
202.60000	-0.0377	
202.80000	-0.0375	
203.00000	-0.0374	
203.20000	-0.0372	
203.40000	-0.0368	
203.60000	-0.0366	
203.80000	-0.0368	
204.00000	-0.0368	
204.20000	-0.0368	
204.40000	-0.0369	
204.60000	-0.0365	
204.80000	-0.0372	
205.00000	-0.0372	
205.20000	-0.0369	
205.40000	-0.0374	
205.60000	-0.0372	
205.80000	-0.0369	
206.00000	-0.0369	
206.20000	-0.0372	
206.40000	-0.0377	
206.60000	-0.0375	
206.80000	-0.0377	
207.00000	-0.0380	
207.20000	-0.0378	
207.40000	-0.0383	
207.60000	-0.0385	
207.80000	-0.0388	
208.00000	-0.0388	
208.20000	-0.0386	
208.40000	-0.0389	
208.60000	-0.0388	
208.80000	-0.0391	
209.00000	-0.0391	
209.20000	-0.0394	
209.40000	-0.0397	
209.60000	-0.0403	
209.80000	-0.0401	
210.00000	-0.0403	
210.20000	-0.0404	
210.40000	-0.0403	
210.60000	-0.0397	
210.80000	-0.0395	
211.00000	-0.0394	
211.20000	-0.0398	
211.40000	-0.0391	
211.60000	-0.0389	
211.80000	-0.0381	
212.00000	-0.0374	
212.20000	-0.0368	
212.40000	-0.0362	
212.60000	-0.0352	
212.80000	-0.0345	
213.00000	-0.0337	
213.20000	-0.0327	
213.40000	-0.0320	
213.60000	-0.0311	
213.80000	-0.0302	
214.00000	-0.0296	
214.20000	-0.0291	
214.40000	-0.0278	
214.60000	-0.0267	
214.80000	-0.0259	
215.00000	-0.0241	
215.20000	-0.0229	
215.40000	-0.0215	
215.60000	-0.0198	
215.80000	-0.0179	
216.00000	-0.0162	
216.20000	-0.0140	
216.40000	-0.0111	
216.60000	-0.0087	
216.80000	-0.0056	
217.00000	-0.0023	
217.20000	 0.0014	
217.40000	 0.0052	
217.60000	 0.0090	
217.80000	 0.0133	
218.00000	 0.0175	
218.20000	 0.0227	
218.40000	 0.0275	
218.60000	 0.0323	
218.80000	 0.0383	
219.00000	 0.0444	
219.20000	 0.0510	
219.40000	 0.0583	
219.60000	 0.0661	
219.80000	 0.0742	
220.00000	 0.0830	
220.20000	 0.0919	
220.40000	 0.1009	
220.60000	 0.1099	
220.80000	 0.1189	
221.00000	 0.1285	
221.20000	 0.1384	
221.40000	 0.1486	
221.60000	 0.1590	
221.80000	 0.1698	
222.00000	 0.1808	
222.20000	 0.1923	
222.40000	 0.2036	
222.60000	 0.2153	
222.80000	 0.2272	
223.00000	 0.2396	
223.20000	 0.2521	
223.40000	 0.2649	
223.60000	 0.2783	
223.80000	 0.2928	
224.00000	 0.3078	
224.20000	 0.3229	
224.40000	 0.3381	
224.60000	 0.3520	
224.80000	 0.3644	
225.00000	 0.3748	
225.20000	 0.3830	
225.40000	 0.3894	
225.60000	 0.3935	
225.80000	 0.3955	
226.00000	 0.3938	
226.20000	 0.3888	
226.40000	 0.3792	
226.60000	 0.3642	
226.80000	 0.3433	
227.00000	 0.3160	
227.20000	 0.2823	
227.40000	 0.2435	
227.60000	 0.1993	
227.80000	 0.1494	
228.00000	 0.0935	
228.20000	 0.0317	
228.40000	-0.0359	
228.60000	-0.1085	
228.80000	-0.1846	
229.00000	-0.2631	
229.20000	-0.3421	
229.40000	-0.4225	
229.60000	-0.5038	
229.80000	-0.5853	
230.00000	-0.6668	
230.20000	-0.7469	
230.40000	-0.8258	
230.60000	-0.9030	
230.80000	-0.9779	
231.00000	-1.0512	
231.20000	-1.1230	
231.40000	-1.1913	
231.60000	-1.2561	
231.80000	-1.3155	
232.00000	-1.3686	
232.20000	-1.4146	
232.40000	-1.4523	
232.60000	-1.4821	
232.80000	-1.5039	
233.00000	-1.5186	
233.20000	-1.5265	
233.40000	-1.5283	
233.60000	-1.5247	
233.80000	-1.5158	
234.00000	-1.5025	
234.20000	-1.4851	
234.40000	-1.4647	
234.60000	-1.4403	
234.80000	-1.4140	
235.00000	-1.3849	
235.20000	-1.3536	
235.40000	-1.3206	
235.60000	-1.2856	
235.80000	-1.2491	
236.00000	-1.2114	
236.20000	-1.1726	
236.40000	-1.1331	
236.60000	-1.0933	
236.80000	-1.0535	
237.00000	-1.0144	
237.20000	-0.9767	
237.40000	-0.9402	
237.60000	-0.9061	
237.80000	-0.8743	
238.00000	-0.8447	
238.20000	-0.8182	
238.40000	-0.7936	
238.60000	-0.7715	
238.80000	-0.7520	
239.00000	-0.7336	
239.20000	-0.7170	
239.40000	-0.7025	
239.60000	-0.6894	
239.80000	-0.6772	
240.00000	-0.6656	
240.20000	-0.6548	
240.40000	-0.6444	
240.60000	-0.6334	
240.80000	-0.6219	
241.00000	-0.6099	
241.20000	-0.5972	
241.40000	-0.5835	
241.60000	-0.5688	
241.80000	-0.5531	
242.00000	-0.5359	
242.20000	-0.5174	
242.40000	-0.4980	
242.60000	-0.4776	
242.80000	-0.4564	
243.00000	-0.4343	
243.20000	-0.4117	
243.40000	-0.3886	
243.60000	-0.3650	
243.80000	-0.3412	
244.00000	-0.3174	
244.20000	-0.2934	
244.40000	-0.2699	
244.60000	-0.2467	
244.80000	-0.2238	
245.00000	-0.2008	
245.20000	-0.1775	
245.40000	-0.1549	
245.60000	-0.1328	
245.80000	-0.1105	
246.00000	-0.0893	
246.20000	-0.0684	
246.40000	-0.0481	
246.60000	-0.0281	
246.80000	-0.0089	
247.00000	 0.0096	
247.20000	 0.0278	
247.40000	 0.0456	
247.60000	 0.0627	
247.80000	 0.0792	
248.00000	 0.0954	
248.20000	 0.1109	
248.40000	 0.1263	
248.60000	 0.1411	
248.80000	 0.1552	
249.00000	 0.1688	
249.20000	 0.1819	
249.40000	 0.1949	
249.60000	 0.2072	
249.80000	 0.2191	
250.00000	 0.2310	
250.20000	 0.2423	
250.40000	 0.2534	
250.60000	 0.2644	
250.80000	 0.2748	
251.00000	 0.2858	
251.20000	 0.2966	
251.40000	 0.3072	
251.60000	 0.3178	
251.80000	 0.3284	
252.00000	 0.3394	
252.20000	 0.3502	
252.40000	 0.3610	
252.60000	 0.3725	
252.80000	 0.3836	
253.00000	 0.3947	
253.20000	 0.4063	
253.40000	 0.4172	
253.60000	 0.4280	
253.80000	 0.4387	
254.00000	 0.4491	
254.20000	 0.4590	
254.40000	 0.4688	
254.60000	 0.4782	
254.80000	 0.4869	
255.00000	 0.4951	
255.20000	 0.5028	
255.40000	 0.5104	
255.60000	 0.5176	
255.80000	 0.5244	
256.00000	 0.5309	
256.20000	 0.5370	
256.40000	 0.5428	
256.60000	 0.5481	
256.80000	 0.5530	
257.00000	 0.5577	
257.20000	 0.5623	
257.40000	 0.5667	
257.60000	 0.5704	
257.80000	 0.5743	
258.00000	 0.5779	
258.20000	 0.5815	
258.40000	 0.5846	
258.60000	 0.5881	
258.80000	 0.5914	
259.00000	 0.5948	
259.20000	 0.5975	
259.40000	 0.6006	
259.60000	 0.6041	
259.80000	 0.6068	
260.00000	 0.6091	
260.20000	 0.6123	
260.40000	 0.6154	
260.60000	 0.6178	
260.80000	 0.6200	
261.00000	 0.6224	
261.20000	 0.6238	
261.40000	 0.6256	
261.60000	 0.6276	
261.80000	 0.6296	
262.00000	 0.6314	
262.20000	 0.6332	
262.40000	 0.6345	
262.60000	 0.6357	
262.80000	 0.6363	
263.00000	 0.6367	
263.20000	 0.6366	
263.40000	 0.6361	
263.60000	 0.6355	
263.80000	 0.6342	
264.00000	 0.6325	
264.20000	 0.6308	
264.40000	 0.6284	
264.60000	 0.6256	
264.80000	 0.6230	
265.00000	 0.6200	
265.20000	 0.6168	
265.40000	 0.6125	
265.60000	 0.6087	
265.80000	 0.6047	
266.00000	 0.6004	
266.20000	 0.5957	
266.40000	 0.5910	
266.60000	 0.5858	
266.80000	 0.5804	
267.00000	 0.5750	
267.20000	 0.5695	
267.40000	 0.5637	
267.60000	 0.5576	
267.80000	 0.5519	
268.00000	 0.5457	
268.20000	 0.5396	
268.40000	 0.5336	
268.60000	 0.5273	
268.80000	 0.5212	
269.00000	 0.5151	
269.20000	 0.5089	
269.40000	 0.5026	
269.60000	 0.4967	
269.80000	 0.4903	
270.00000	 0.4845	
270.20000	 0.4782	
270.40000	 0.4720	
270.60000	 0.4657	
270.80000	 0.4597	
271.00000	 0.4538	
271.20000	 0.4478	
271.40000	 0.4422	
271.60000	 0.4359	
271.80000	 0.4301	
272.00000	 0.4242	
272.20000	 0.4184	
272.40000	 0.4128	
272.60000	 0.4071	
272.80000	 0.4015	
273.00000	 0.3960	
273.20000	 0.3906	
273.40000	 0.3851	
273.60000	 0.3796	
273.80000	 0.3743	
274.00000	 0.3693	
274.20000	 0.3641	
274.40000	 0.3586	
274.60000	 0.3534	
274.80000	 0.3484	
275.00000	 0.3435	
275.20000	 0.3384	
275.40000	 0.3333	
275.60000	 0.3284	
275.80000	 0.3233	
276.00000	 0.3185	
276.20000	 0.3136	
276.40000	 0.3090	
276.60000	 0.3040	
276.80000	 0.2997	
277.00000	 0.2950	
277.20000	 0.2905	
277.40000	 0.2861	
277.60000	 0.2817	
277.80000	 0.2773	
278.00000	 0.2725	
278.20000	 0.2678	
278.40000	 0.2637	
278.60000	 0.2600	
278.80000	 0.2559	
279.00000	 0.2518	
279.20000	 0.2475	
279.40000	 0.2438	
279.60000	 0.2399	
279.80000	 0.2359	
280.00000	 0.2316	
280.20000	 0.2281	
280.40000	 0.2243	
280.60000	 0.2208	
280.80000	 0.2168	
281.00000	 0.2133	
281.20000	 0.2097	
281.40000	 0.2063	
281.60000	 0.2028	
281.80000	 0.1996	
282.00000	 0.1958	
282.20000	 0.1926	
282.40000	 0.1892	
282.60000	 0.1863	
282.80000	 0.1831	
283.00000	 0.1801	
283.20000	 0.1770	
283.40000	 0.1736	
283.60000	 0.1706	
283.80000	 0.1674	
284.00000	 0.1646	
284.20000	 0.1614	
284.40000	 0.1587	
284.60000	 0.1558	
284.80000	 0.1529	
285.00000	 0.1500	
285.20000	 0.1474	
285.40000	 0.1445	
285.60000	 0.1419	
285.80000	 0.1392	
286.00000	 0.1363	
286.20000	 0.1338	
286.40000	 0.1312	
286.60000	 0.1286	
286.80000	 0.1262	
287.00000	 0.1234	
287.20000	 0.1210	
287.40000	 0.1184	
287.60000	 0.1160	
287.80000	 0.1141	
288.00000	 0.1115	
288.20000	 0.1091	
288.40000	 0.1071	
288.60000	 0.1044	
288.80000	 0.1024	
289.00000	 0.1007	
289.20000	 0.0983	
289.40000	 0.0964	
289.60000	 0.0945	
289.80000	 0.0925	
290.00000	 0.0902	
290.20000	 0.0882	
290.40000	 0.0861	
290.60000	 0.0845	
290.80000	 0.0821	
291.00000	 0.0801	
291.20000	 0.0783	
291.40000	 0.0766	
291.60000	 0.0745	
291.80000	 0.0726	
292.00000	 0.0710	
292.20000	 0.0691	
292.40000	 0.0674	
292.60000	 0.0652	
292.80000	 0.0636	
293.00000	 0.0618	
293.20000	 0.0600	
293.40000	 0.0584	
293.60000	 0.0566	
293.80000	 0.0554	
294.00000	 0.0540	
294.20000	 0.0525	
294.40000	 0.0508	
294.60000	 0.0487	
294.80000	 0.0473	
295.00000	 0.0461	
295.20000	 0.0447	
295.40000	 0.0436	
295.60000	 0.0420	
295.80000	 0.0406	
296.00000	 0.0394	
296.20000	 0.0380	
296.40000	 0.0366	
296.60000	 0.0356	
296.80000	 0.0342	
297.00000	 0.0328	
297.20000	 0.0316	
297.40000	 0.0304	
297.60000	 0.0291	
297.80000	 0.0276	
298.00000	 0.0266	
298.20000	 0.0253	
298.40000	 0.0241	
298.60000	 0.0229	
298.80000	 0.0218	
299.00000	 0.0206	
299.20000	 0.0197	
299.40000	 0.0185	
299.60000	 0.0175	
299.80000	 0.0168	
300.00000	 0.0159	
300.20000	 0.0143	
300.40000	 0.0134	
300.60000	 0.0128	
300.80000	 0.0116	
301.00000	 0.0102	
301.20000	 0.0096	
301.40000	 0.0085	
301.60000	 0.0076	
301.80000	 0.0066	
302.00000	 0.0058	
302.20000	 0.0044	
302.40000	 0.0038	
302.60000	 0.0024	
302.80000	 0.0020	
303.00000	 0.0012	
303.20000	 0.0000	
303.40000	-0.0006	
303.60000	-0.0015	
303.80000	-0.0024	
304.00000	-0.0035	
304.20000	-0.0043	
304.40000	-0.0050	
304.60000	-0.0058	
304.80000	-0.0064	
305.00000	-0.0072	
305.20000	-0.0081	
305.40000	-0.0090	
305.60000	-0.0095	
305.80000	-0.0101	
306.00000	-0.0110	
306.20000	-0.0114	
306.40000	-0.0124	
306.60000	-0.0130	
306.80000	-0.0137	
307.00000	-0.0145	
307.20000	-0.0154	
307.40000	-0.0157	
307.60000	-0.0168	
307.80000	-0.0177	
308.00000	-0.0183	
308.20000	-0.0189	
308.40000	-0.0197	
308.60000	-0.0203	
308.80000	-0.0211	
309.00000	-0.0217	
309.20000	-0.0220	
309.40000	-0.0226	
309.60000	-0.0232	
309.80000	-0.0241	
310.00000	-0.0249	
310.20000	-0.0255	
310.40000	-0.0256	
310.60000	-0.0261	
310.80000	-0.0270	
311.00000	-0.0275	
311.20000	-0.0276	
311.40000	-0.0284	
311.60000	-0.0290	
311.80000	-0.0294	
312.00000	-0.0298	
312.20000	-0.0305	
312.40000	-0.0310	
312.60000	-0.0313	
312.80000	-0.0320	
313.00000	-0.0325	
313.20000	-0.0328	
313.40000	-0.0333	
313.60000	-0.0339	
313.80000	-0.0342	
314.00000	-0.0345	
314.20000	-0.0352	
314.40000	-0.0352	
314.60000	-0.0359	
314.80000	-0.0365	
315.00000	-0.0365	
315.20000	-0.0374	
315.40000	-0.0377	
315.60000	-0.0380	
315.80000	-0.0386	
316.00000	-0.0388	
316.20000	-0.0389	
316.40000	-0.0398	
316.60000	-0.0400	
316.80000	-0.0400	
317.00000	-0.0404	
317.20000	-0.0407	
317.40000	-0.0412	
317.60000	-0.0418	
317.80000	-0.0421	
318.00000	-0.0426	
318.20000	-0.0426	
318.40000	-0.0432	
318.60000	-0.0436	
318.80000	-0.0441	
319.00000	-0.0446	
319.20000	-0.0447	
319.40000	-0.0450	
319.60000	-0.0453	
319.80000	-0.0459	
320.00000	-0.0461	
320.20000	-0.0467	
320.40000	-0.0468	
320.60000	-0.0475	
320.80000	-0.0479	
321.00000	-0.0482	
321.20000	-0.0482	
321.40000	-0.0484	
321.60000	-0.0490	
321.80000	-0.0491	
322.00000	-0.0496	
322.20000	-0.0500	
322.40000	-0.0502	
322.60000	-0.0504	
322.80000	-0.0507	
323.00000	-0.0507	
323.20000	-0.0510	
323.40000	-0.0513	
323.60000	-0.0519	
323.80000	-0.0522	
324.00000	-0.0528	
324.20000	-0.0533	
324.40000	-0.0537	
324.60000	-0.0539	
324.80000	-0.0545	
325.00000	-0.0546	
325.20000	-0.0549	
325.40000	-0.0552	
325.60000	-0.0555	
325.80000	-0.0555	
326.00000	-0.0558	
326.20000	-0.0562	
326.40000	-0.0568	
326.60000	-0.0572	
326.80000	-0.0574	
327.00000	-0.0575	
327.20000	-0.0575	
327.40000	-0.0577	
327.60000	-0.0580	
327.80000	-0.0586	
328.00000	-0.0586	
328.20000	-0.0589	
328.40000	-0.0591	
328.60000	-0.0595	
328.80000	-0.0597	
329.00000	-0.0600	
329.20000	-0.0603	
329.40000	-0.0609	
329.60000	-0.0610	
329.80000	-0.0612	
330.00000	-0.0615	
330.20000	-0.0616	
330.40000	-0.0618	
330.60000	-0.0618	
330.80000	-0.0624	
331.00000	-0.0624	
331.20000	-0.0627	
331.40000	-0.0630	
331.60000	-0.0633	
331.80000	-0.0635	
332.00000	-0.0636	
332.20000	-0.0639	
332.40000	-0.0645	
332.60000	-0.0644	
332.80000	-0.0644	
333.00000	-0.0648	
333.20000	-0.0652	
333.40000	-0.0653	
333.60000	-0.0658	
333.80000	-0.0658	
334.00000	-0.0659	
334.20000	-0.0661	
334.40000	-0.0665	
334.60000	-0.0667	
334.80000	-0.0670	
335.00000	-0.0671	
335.20000	-0.0674	
335.40000	-0.0676	
335.60000	-0.0681	
335.80000	-0.0682	
336.00000	-0.0687	
336.20000	-0.0685	
336.40000	-0.0688	
336.60000	-0.0691	
336.80000	-0.0694	
337.00000	-0.0697	
337.20000	-0.0699	
337.40000	-0.0703	
337.60000	-0.0705	
337.80000	-0.0710	
338.00000	-0.0708	
338.20000	-0.0713	
338.40000	-0.0717	
338.60000	-0.0719	
338.80000	-0.0719	
339.00000	-0.0719	
339.20000	-0.0723	
339.40000	-0.0728	
339.60000	-0.0725	
339.80000	-0.0728	
340.00000	-0.0731	
340.20000	-0.0734	
340.40000	-0.0735	
340.60000	-0.0739	
340.80000	-0.0745	
341.00000	-0.0749	
341.20000	-0.0752	
341.40000	-0.0755	
341.60000	-0.0757	
341.80000	-0.0758	
342.00000	-0.0760	
342.20000	-0.0763	
342.40000	-0.0764	
342.60000	-0.0768	
342.80000	-0.0769	
343.00000	-0.0771	
343.20000	-0.0777	
343.40000	-0.0778	
343.60000	-0.0777	
343.80000	-0.0778	
344.00000	-0.0781	
344.20000	-0.0781	
344.40000	-0.0783	
344.60000	-0.0790	
344.80000	-0.0787	
345.00000	-0.0789	
345.20000	-0.0792	
345.40000	-0.0793	
345.60000	-0.0797	
345.80000	-0.0798	
346.00000	-0.0798	
346.20000	-0.0800	
346.40000	-0.0801	
346.60000	-0.0803	
346.80000	-0.0806	
347.00000	-0.0809	
347.20000	-0.0807	
347.40000	-0.0809	
347.60000	-0.0812	
347.80000	-0.0812	
348.00000	-0.0810	
348.20000	-0.0815	
348.40000	-0.0819	
348.60000	-0.0822	
348.80000	-0.0822	
349.00000	-0.0826	
349.20000	-0.0826	
349.40000	-0.0826	
349.60000	-0.0830	
349.80000	-0.0830	
350.00000	-0.0833	
350.20000	-0.0835	
350.40000	-0.0835	
350.60000	-0.0836	
350.80000	-0.0839	
351.00000	-0.0842	
351.20000	-0.0841	
351.40000	-0.0844	
351.60000	-0.0845	
351.80000	-0.0850	
352.00000	-0.0847	
352.20000	-0.0853	
352.40000	-0.0851	
352.60000	-0.0851	
352.80000	-0.0854	
353.00000	-0.0853	
353.20000	-0.0854	
353.40000	-0.0856	
353.60000	-0.0862	
353.80000	-0.0862	
354.00000	-0.0864	
354.20000	-0.0865	
354.40000	-0.0862	
354.60000	-0.0865	
354.80000	-0.0867	
355.00000	-0.0871	
355.20000	-0.0873	
355.40000	-0.0871	
355.60000	-0.0871	
355.80000	-0.0873	
356.00000	-0.0874	
356.20000	-0.0873	
356.40000	-0.0873	
356.60000	-0.0873	
356.80000	-0.0876	
357.00000	-0.0877	
357.20000	-0.0876	
357.40000	-0.0882	
357.60000	-0.0887	
357.80000	-0.0888	
358.00000	-0.0890	
358.20000	-0.0893	
358.40000	-0.0893	
358.60000	-0.0894	
358.80000	-0.0896	
359.00000	-0.0899	
359.20000	-0.0900	
359.40000	-0.0897	
359.60000	-0.0900	
359.80000	-0.0903	
360.00000	-0.0908	
360.20000	-0.0906	
360.40000	-0.0906	
360.60000	-0.0903	
360.80000	-0.0909	
361.00000	-0.0908	
361.20000	-0.0911	
361.40000	-0.0911	
361.60000	-0.0908	
361.80000	-0.0911	
362.00000	-0.0912	
362.20000	-0.0914	
362.40000	-0.0914	
362.60000	-0.0914	
362.80000	-0.0917	
363.00000	-0.0917	
363.20000	-0.0917	
363.40000	-0.0919	
363.60000	-0.0920	
363.80000	-0.0920	
364.00000	-0.0919	
364.20000	-0.0919	
364.40000	-0.0919	
364.60000	-0.0920	
364.80000	-0.0919	
365.00000	-0.0917	
365.20000	-0.0919	
365.40000	-0.0919	
365.60000	-0.0920	
365.80000	-0.0919	
366.00000	-0.0919	
366.20000	-0.0917	
366.40000	-0.0916	
366.60000	-0.0920	
366.80000	-0.0920	
367.00000	-0.0917	
367.20000	-0.0916	
367.40000	-0.0917	
367.60000	-0.0916	
367.80000	-0.0920	
368.00000	-0.0919	
368.20000	-0.0920	
368.40000	-0.0920	
368.60000	-0.0920	
368.80000	-0.0922	
369.00000	-0.0922	
369.20000	-0.0925	
369.40000	-0.0922	
369.60000	-0.0925	
369.80000	-0.0928	
370.00000	-0.0926	
370.20000	-0.0925	
370.40000	-0.0928	
370.60000	-0.0929	
370.80000	-0.0929	
371.00000	-0.0926	
371.20000	-0.0926	
371.40000	-0.0928	
371.60000	-0.0926	
371.80000	-0.0925	
372.00000	-0.0928	
372.20000	-0.0926	
372.40000	-0.0922	
372.60000	-0.0920	
372.80000	-0.0920	
373.00000	-0.0920	
373.20000	-0.0920	
373.40000	-0.0919	
373.60000	-0.0920	
373.80000	-0.0919	
374.00000	-0.0920	
374.20000	-0.0922	
374.40000	-0.0922	
374.60000	-0.0925	
374.80000	-0.0926	
375.00000	-0.0925	
375.20000	-0.0928	
375.40000	-0.0920	
375.60000	-0.0922	
375.80000	-0.0925	
376.00000	-0.0922	
376.20000	-0.0920	
376.40000	-0.0920	
376.60000	-0.0922	
376.80000	-0.0919	
377.00000	-0.0916	
377.20000	-0.0917	
377.40000	-0.0914	
377.60000	-0.0911	
377.80000	-0.0914	
378.00000	-0.0912	
378.20000	-0.0911	
378.40000	-0.0909	
378.60000	-0.0905	
378.80000	-0.0906	
379.00000	-0.0906	
379.20000	-0.0906	
379.40000	-0.0903	
379.60000	-0.0905	
379.80000	-0.0905	
380.00000	-0.0903	
380.20000	-0.0900	
380.40000	-0.0905	
380.60000	-0.0900	
380.80000	-0.0899	
381.00000	-0.0899	
381.20000	-0.0896	
381.40000	-0.0894	
381.60000	-0.0891	
381.80000	-0.0890	
382.00000	-0.0888	
382.20000	-0.0890	
382.40000	-0.0888	
382.60000	-0.0885	
382.80000	-0.0882	
383.00000	-0.0879	
383.20000	-0.0877	
383.40000	-0.0879	
383.60000	-0.0877	
383.80000	-0.0877	
384.00000	-0.0873	
384.20000	-0.0871	
384.40000	-0.0871	
384.60000	-0.0871	
384.80000	-0.0868	
385.00000	-0.0867	
385.20000	-0.0870	
385.40000	-0.0865	
385.60000	-0.0867	
385.80000	-0.0864	
386.00000	-0.0865	
386.20000	-0.0862	
386.40000	-0.0864	
386.60000	-0.0862	
386.80000	-0.0864	
387.00000	-0.0861	
387.20000	-0.0858	
387.40000	-0.0861	
387.60000	-0.0854	
387.80000	-0.0851	
388.00000	-0.0850	
388.20000	-0.0850	
388.40000	-0.0848	
388.60000	-0.0848	
388.80000	-0.0847	
389.00000	-0.0842	
389.20000	-0.0839	
389.40000	-0.0839	
389.60000	-0.0836	
389.80000	-0.0833	
390.00000	-0.0832	
390.20000	-0.0830	
390.40000	-0.0829	
390.60000	-0.0826	
390.80000	-0.0826	
391.00000	-0.0827	
391.20000	-0.0822	
391.40000	-0.0824	
391.60000	-0.0822	
391.80000	-0.0819	
392.00000	-0.0815	
392.20000	-0.0819	
392.40000	-0.0815	
392.60000	-0.0818	
392.80000	-0.0813	
393.00000	-0.0813	
393.20000	-0.0812	
393.40000	-0.0810	
393.60000	-0.0809	
393.80000	-0.0803	
394.00000	-0.0800	
394.20000	-0.0803	
394.40000	-0.0798	
394.60000	-0.0798	
394.80000	-0.0797	
395.00000	-0.0797	
395.20000	-0.0792	
395.40000	-0.0790	
395.60000	-0.0789	
395.80000	-0.0786	
396.00000	-0.0787	
396.20000	-0.0784	
396.40000	-0.0783	
396.60000	-0.0780	
396.80000	-0.0780	
397.00000	-0.0780	
397.20000	-0.0777	
397.40000	-0.0777	
397.60000	-0.0772	
397.80000	-0.0771	
398.00000	-0.0768	
398.20000	-0.0769	
398.40000	-0.0766	
398.60000	-0.0763	
398.80000	-0.0761	
399.00000	-0.0760	
399.20000	-0.0758	
399.40000	-0.0758	
399.60000	-0.0757	
399.80000	-0.0749	
400.00000	-0.0751	
400.20000	-0.0749	
400.40000	-0.0748	
400.60000	-0.0743	
400.80000	-0.0743	
401.00000	-0.0742	
401.20000	-0.0742	
401.40000	-0.0740	
401.60000	-0.0737	
401.80000	-0.0739	
402.00000	-0.0737	
402.20000	-0.0731	
402.40000	-0.0734	
402.60000	-0.0731	
402.80000	-0.0731	
403.00000	-0.0728	
403.20000	-0.0729	
403.40000	-0.0726	
403.60000	-0.0726	
403.80000	-0.0726	
404.00000	-0.0728	
404.20000	-0.0722	
404.40000	-0.0722	
404.60000	-0.0719	
404.80000	-0.0717	
405.00000	-0.0717	
405.20000	-0.0716	
405.40000	-0.0716	
405.60000	-0.0716	
405.80000	-0.0713	
406.00000	-0.0708	
406.20000	-0.0706	
406.40000	-0.0705	
406.60000	-0.0703	
406.80000	-0.0702	
407.00000	-0.0703	
407.20000	-0.0703	
407.40000	-0.0700	
407.60000	-0.0702	
407.80000	-0.0700	
408.00000	-0.0703	
408.20000	-0.0699	
408.40000	-0.0699	
408.60000	-0.0699	
408.80000	-0.0699	
409.00000	-0.0697	
409.20000	-0.0696	
409.40000	-0.0696	
409.60000	-0.0696	
409.80000	-0.0691	
410.00000	-0.0693	
410.20000	-0.0688	
410.40000	-0.0685	
410.60000	-0.0682	
410.80000	-0.0684	
411.00000	-0.0681	
411.20000	-0.0682	
411.40000	-0.0682	
411.60000	-0.0679	
411.80000	-0.0676	
412.00000	-0.0677	
412.20000	-0.0671	
412.40000	-0.0670	
412.60000	-0.0671	
412.80000	-0.0670	
413.00000	-0.0670	
413.20000	-0.0667	
413.40000	-0.0670	
413.60000	-0.0664	
413.80000	-0.0664	
414.00000	-0.0664	
414.20000	-0.0662	
414.40000	-0.0661	
414.60000	-0.0661	
414.80000	-0.0659	
415.00000	-0.0661	
415.20000	-0.0658	
415.40000	-0.0658	
415.60000	-0.0659	
415.80000	-0.0656	
416.00000	-0.0655	
416.20000	-0.0655	
416.40000	-0.0656	
416.60000	-0.0653	
416.80000	-0.0655	
417.00000	-0.0655	
417.20000	-0.0655	
417.40000	-0.0652	
417.60000	-0.0653	
417.80000	-0.0653	
418.00000	-0.0650	
418.20000	-0.0648	
418.40000	-0.0650	
418.60000	-0.0648	
418.80000	-0.0650	
419.00000	-0.0650	
419.20000	-0.0644	
419.40000	-0.0648	
419.60000	-0.0648	
419.80000	-0.0652	
420.00000	-0.0650	
420.20000	-0.0652	
420.40000	-0.0652	
420.60000	-0.0653	
420.80000	-0.0652	
421.00000	-0.0655	
421.20000	-0.0653	
421.40000	-0.0653	
421.60000	-0.0653	
421.80000	-0.0658	
422.00000	-0.0656	
422.20000	-0.0658	
422.40000	-0.0658	
422.60000	-0.0655	
422.80000	-0.0655	
423.00000	-0.0656	
423.20000	-0.0658	
423.40000	-0.0656	
423.60000	-0.0661	
423.80000	-0.0656	
424.00000	-0.0661	
424.20000	-0.0659	
424.40000	-0.0662	
424.60000	-0.0662	
424.80000	-0.0662	
425.00000	-0.0665	
425.20000	-0.0664	
425.40000	-0.0665	
425.60000	-0.0667	
425.80000	-0.0671	
426.00000	-0.0670	
426.20000	-0.0677	
426.40000	-0.0677	
426.60000	-0.0677	
426.80000	-0.0677	
427.00000	-0.0677	
427.20000	-0.0679	
427.40000	-0.0681	
427.60000	-0.0681	
427.80000	-0.0682	
428.00000	-0.0685	
428.20000	-0.0691	
428.40000	-0.0691	
428.60000	-0.0694	
428.80000	-0.0696	
429.00000	-0.0697	
429.20000	-0.0700	
429.40000	-0.0703	
429.60000	-0.0703	
429.80000	-0.0705	
430.00000	-0.0710	
430.20000	-0.0716	
430.40000	-0.0714	
430.60000	-0.0719	
430.80000	-0.0723	
431.00000	-0.0723	
431.20000	-0.0726	
431.40000	-0.0729	
431.60000	-0.0734	
431.80000	-0.0737	
432.00000	-0.0739	
432.20000	-0.0742	
432.40000	-0.0746	
432.60000	-0.0751	
432.80000	-0.0755	
433.00000	-0.0758	
433.20000	-0.0764	
433.40000	-0.0764	
433.60000	-0.0771	
433.80000	-0.0772	
434.00000	-0.0778	
434.20000	-0.0783	
434.40000	-0.0789	
434.60000	-0.0789	
434.80000	-0.0792	
435.00000	-0.0800	
435.20000	-0.0800	
435.40000	-0.0806	
435.60000	-0.0810	
435.80000	-0.0809	
436.00000	-0.0815	
436.20000	-0.0818	
436.40000	-0.0821	
436.60000	-0.0826	
436.80000	-0.0833	
437.00000	-0.0835	
437.20000	-0.0842	
437.40000	-0.0845	
437.60000	-0.0851	
437.80000	-0.0850	
438.00000	-0.0853	
438.20000	-0.0862	
438.40000	-0.0864	
438.60000	-0.0868	
438.80000	-0.0873	
439.00000	-0.0874	
439.20000	-0.0879	
439.40000	-0.0882	
439.60000	-0.0887	
439.80000	-0.0888	
440.00000	-0.0893	
440.20000	-0.0900	
440.40000	-0.0900	
440.60000	-0.0906	
440.80000	-0.0914	
441.00000	-0.0916	
441.20000	-0.0922	
441.40000	-0.0926	
441.60000	-0.0932	
441.80000	-0.0937	
442.00000	-0.0940	
442.20000	-0.0943	
442.40000	-0.0951	
442.60000	-0.0955	
442.80000	-0.0960	
443.00000	-0.0964	
443.20000	-0.0972	
443.40000	-0.0975	
443.60000	-0.0975	
443.80000	-0.0978	
444.00000	-0.0981	
444.20000	-0.0984	
444.40000	-0.0990	
444.60000	-0.0996	
444.80000	-0.0996	
445.00000	-0.1003	
445.20000	-0.1004	
445.40000	-0.1009	
445.60000	-0.1012	
445.80000	-0.1013	
446.00000	-0.1016	
446.20000	-0.1021	
446.40000	-0.1024	
446.60000	-0.1025	
446.80000	-0.1030	
447.00000	-0.1033	
447.20000	-0.1035	
447.40000	-0.1038	
447.60000	-0.1042	
447.80000	-0.1044	
448.00000	-0.1047	
448.20000	-0.1051	
448.40000	-0.1053	
448.60000	-0.1056	
448.80000	-0.1059	
449.00000	-0.1057	
449.20000	-0.1065	
449.40000	-0.1067	
449.60000	-0.1068	
449.80000	-0.1073	
450.00000	-0.1074	
450.20000	-0.1074	
450.40000	-0.1076	
450.60000	-0.1077	
450.80000	-0.1080	
451.00000	-0.1086	
451.20000	-0.1085	
451.40000	-0.1086	
451.60000	-0.1089	
451.80000	-0.1091	
452.00000	-0.1094	
452.20000	-0.1094	
452.40000	-0.1097	
452.60000	-0.1100	
452.80000	-0.1099	
453.00000	-0.1100	
453.20000	-0.1100	
453.40000	-0.1102	
453.60000	-0.1105	
453.80000	-0.1108	
454.00000	-0.1108	
454.20000	-0.1108	
454.40000	-0.1109	
454.60000	-0.1108	
454.80000	-0.1108	
455.00000	-0.1111	
455.20000	-0.1111	
455.40000	-0.1112	
455.60000	-0.1112	
455.80000	-0.1111	
456.00000	-0.1109	
456.20000	-0.1112	
456.40000	-0.1109	
456.60000	-0.1111	
456.80000	-0.1109	
457.00000	-0.1109	
457.20000	-0.1111	
457.40000	-0.1109	
457.60000	-0.1109	
457.80000	-0.1109	
458.00000	-0.1106	
458.20000	-0.1108	
458.40000	-0.1103	
458.60000	-0.1103	
458.80000	-0.1103	
459.00000	-0.1103	
459.20000	-0.1103	
459.40000	-0.1103	
459.60000	-0.1103	
459.80000	-0.1102	
460.00000	-0.1100	
460.20000	-0.1099	
460.40000	-0.1097	
460.60000	-0.1096	
460.80000	-0.1094	
461.00000	-0.1089	
461.20000	-0.1091	
461.40000	-0.1089	
461.60000	-0.1088	
461.80000	-0.1085	
462.00000	-0.1083	
462.20000	-0.1083	
462.40000	-0.1083	
462.60000	-0.1082	
462.80000	-0.1082	
463.00000	-0.1077	
463.20000	-0.1076	
463.40000	-0.1073	
463.60000	-0.1070	
463.80000	-0.1068	
464.00000	-0.1065	
464.20000	-0.1062	
464.40000	-0.1062	
464.60000	-0.1057	
464.80000	-0.1057	
465.00000	-0.1053	
465.20000	-0.1053	
465.40000	-0.1051	
465.60000	-0.1048	
465.80000	-0.1048	
466.00000	-0.1047	
466.20000	-0.1044	
466.40000	-0.1044	
466.60000	-0.1042	
466.80000	-0.1039	
467.00000	-0.1036	
467.20000	-0.1033	
467.40000	-0.1035	
467.60000	-0.1027	
467.80000	-0.1024	
468.00000	-0.1024	
468.20000	-0.1022	
468.40000	-0.1019	
468.60000	-0.1018	
468.80000	-0.1015	
469.00000	-0.1013	
469.20000	-0.1010	
469.40000	-0.1006	
469.60000	-0.1003	
469.80000	-0.0999	
470.00000	-0.0999	
470.20000	-0.0998	
470.40000	-0.0996	
470.60000	-0.0996	
470.80000	-0.0993	
471.00000	-0.0992	
471.20000	-0.0990	
471.40000	-0.0983	
471.60000	-0.0983	
471.80000	-0.0980	
472.00000	-0.0977	
472.20000	-0.0972	
472.40000	-0.0969	
472.60000	-0.0964	
472.80000	-0.0964	
473.00000	-0.0957	
473.20000	-0.0955	
473.40000	-0.0954	
473.60000	-0.0948	
473.80000	-0.0946	
474.00000	-0.0946	
474.20000	-0.0941	
474.40000	-0.0937	
474.60000	-0.0937	
474.80000	-0.0932	
475.00000	-0.0932	
475.20000	-0.0929	
475.40000	-0.0926	
475.60000	-0.0922	
475.80000	-0.0922	
476.00000	-0.0917	
476.20000	-0.0914	
476.40000	-0.0912	
476.60000	-0.0912	
476.80000	-0.0911	
477.00000	-0.0905	
477.20000	-0.0900	
477.40000	-0.0897	
477.60000	-0.0894	
477.80000	-0.0893	
478.00000	-0.0891	
478.20000	-0.0890	
478.40000	-0.0883	
478.60000	-0.0885	
478.80000	-0.0882	
479.00000	-0.0876	
479.20000	-0.0874	
479.40000	-0.0873	
479.60000	-0.0870	
479.80000	-0.0868	
480.00000	-0.0864	
480.20000	-0.0864	
480.40000	-0.0858	
480.60000	-0.0856	
480.80000	-0.0854	
481.00000	-0.0851	
481.20000	-0.0847	
481.40000	-0.0844	
481.60000	-0.0841	
481.80000	-0.0842	
482.00000	-0.0839	
482.20000	-0.0836	
482.40000	-0.0835	
482.60000	-0.0830	
482.80000	-0.0826	
483.00000	-0.0822	
483.20000	-0.0822	
483.40000	-0.0821	
483.60000	-0.0815	
483.80000	-0.0813	
484.00000	-0.0810	
484.20000	-0.0807	
484.40000	-0.0806	
484.60000	-0.0801	
484.80000	-0.0800	
485.00000	-0.0797	
485.20000	-0.0792	
485.40000	-0.0792	
485.60000	-0.0789	
485.80000	-0.0787	
486.00000	-0.0781	
486.20000	-0.0778	
486.40000	-0.0778	
486.60000	-0.0777	
486.80000	-0.0771	
487.00000	-0.0771	
487.20000	-0.0769	
487.40000	-0.0769	
487.60000	-0.0764	
487.80000	-0.0763	
488.00000	-0.0758	
488.20000	-0.0757	
488.40000	-0.0752	
488.60000	-0.0752	
488.80000	-0.0748	
489.00000	-0.0743	
489.20000	-0.0739	
489.40000	-0.0734	
489.60000	-0.0734	
489.80000	-0.0726	
490.00000	-0.0722	
490.20000	-0.0720	
490.40000	-0.0717	
490.60000	-0.0717	
490.80000	-0.0716	
491.00000	-0.0716	
491.20000	-0.0710	
491.40000	-0.0710	
491.60000	-0.0705	
491.80000	-0.0702	
492.00000	-0.0700	
492.20000	-0.0694	
492.40000	-0.0693	
492.60000	-0.0691	
492.80000	-0.0685	
493.00000	-0.0684	
493.20000	-0.0684	
493.40000	-0.0681	
493.60000	-0.0677	
493.80000	-0.0674	
494.00000	-0.0667	
494.20000	-0.0664	
494.40000	-0.0662	
494.60000	-0.0659	
494.80000	-0.0656	
495.00000	-0.0655	
495.20000	-0.0645	
495.40000	-0.0642	
495.60000	-0.0644	
495.80000	-0.0641	
496.00000	-0.0638	
496.20000	-0.0638	
496.40000	-0.0632	
496.60000	-0.0629	
496.80000	-0.0627	
497.00000	-0.0623	
497.20000	-0.0620	
497.40000	-0.0615	
497.60000	-0.0612	
497.80000	-0.0607	
498.00000	-0.0603	
498.20000	-0.0601	
498.40000	-0.0595	
498.60000	-0.0597	
498.80000	-0.0594	
499.00000	-0.0589	
499.20000	-0.0586	
499.40000	-0.0581	
499.60000	-0.0581	
499.80000	-0.0575	
500.00000	-0.0575	
500.20000	-0.0574	
500.40000	-0.0571	
500.60000	-0.0565	
500.80000	-0.0560	
501.00000	-0.0560	
501.20000	-0.0554	
501.40000	-0.0552	
501.60000	-0.0551	
501.80000	-0.0549	
502.00000	-0.0548	
502.20000	-0.0545	
502.40000	-0.0540	
502.60000	-0.0536	
502.80000	-0.0536	
503.00000	-0.0531	
503.20000	-0.0529	
503.40000	-0.0528	
503.60000	-0.0523	
503.80000	-0.0523	
504.00000	-0.0523	
504.20000	-0.0517	
504.40000	-0.0511	
504.60000	-0.0511	
504.80000	-0.0508	
505.00000	-0.0507	
505.20000	-0.0505	
505.40000	-0.0500	
505.60000	-0.0493	
505.80000	-0.0490	
506.00000	-0.0487	
506.20000	-0.0487	
506.40000	-0.0482	
506.60000	-0.0479	
506.80000	-0.0476	
507.00000	-0.0471	
507.20000	-0.0468	
507.40000	-0.0467	
507.60000	-0.0467	
507.80000	-0.0465	
508.00000	-0.0464	
508.20000	-0.0459	
508.40000	-0.0453	
508.60000	-0.0455	
508.80000	-0.0449	
509.00000	-0.0449	
509.20000	-0.0449	
509.40000	-0.0444	
509.60000	-0.0443	
509.80000	-0.0441	
510.00000	-0.0438	
510.20000	-0.0438	
510.40000	-0.0432	
510.60000	-0.0427	
510.80000	-0.0423	
511.00000	-0.0424	
511.20000	-0.0426	
511.40000	-0.0423	
511.60000	-0.0417	
511.80000	-0.0412	
512.00000	-0.0410	
512.20000	-0.0409	
512.40000	-0.0407	
512.60000	-0.0407	
512.80000	-0.0404	
513.00000	-0.0406	
513.20000	-0.0403	
513.40000	-0.0401	
513.60000	-0.0400	
513.80000	-0.0398	
514.00000	-0.0400	
514.20000	-0.0395	
514.40000	-0.0394	
514.60000	-0.0391	
514.80000	-0.0388	
515.00000	-0.0388	
515.20000	-0.0388	
515.40000	-0.0386	
515.60000	-0.0385	
515.80000	-0.0381	
516.00000	-0.0380	
516.20000	-0.0378	
516.40000	-0.0377	
516.60000	-0.0377	
516.80000	-0.0377	
517.00000	-0.0375	
517.20000	-0.0372	
517.40000	-0.0368	
517.60000	-0.0369	
517.80000	-0.0368	
518.00000	-0.0365	
518.20000	-0.0363	
518.40000	-0.0362	
518.60000	-0.0362	
518.80000	-0.0363	
519.00000	-0.0360	
519.20000	-0.0362	
519.40000	-0.0359	
519.60000	-0.0359	
519.80000	-0.0356	
520.00000	-0.0360	
520.20000	-0.0357	
520.40000	-0.0359	
520.60000	-0.0356	
520.80000	-0.0356	
521.00000	-0.0354	
521.20000	-0.0352	
521.40000	-0.0354	
521.60000	-0.0354	
521.80000	-0.0354	
522.00000	-0.0349	
522.20000	-0.0348	
522.40000	-0.0348	
522.60000	-0.0345	
522.80000	-0.0345	
523.00000	-0.0343	
523.20000	-0.0342	
523.40000	-0.0339	
523.60000	-0.0340	
523.80000	-0.0339	
524.00000	-0.0339	
524.20000	-0.0339	
524.40000	-0.0339	
524.60000	-0.0340	
524.80000	-0.0339	
525.00000	-0.0337	
525.20000	-0.0339	
525.40000	-0.0340	
525.60000	-0.0337	
525.80000	-0.0336	
526.00000	-0.0337	
526.20000	-0.0339	
526.40000	-0.0339	
526.60000	-0.0337	
526.80000	-0.0336	
527.00000	-0.0334	
527.20000	-0.0333	
527.40000	-0.0327	
527.60000	-0.0333	
527.80000	-0.0331	
528.00000	-0.0333	
528.20000	-0.0328	
528.40000	-0.0327	
528.60000	-0.0327	
528.80000	-0.0328	
529.00000	-0.0327	
529.20000	-0.0327	
529.40000	-0.0327	
529.60000	-0.0325	
529.80000	-0.0327	
530.00000	-0.0327	
530.20000	-0.0327	
530.40000	-0.0328	
530.60000	-0.0331	
530.80000	-0.0331	
531.00000	-0.0327	
531.20000	-0.0325	
531.40000	-0.0327	
531.60000	-0.0325	
531.80000	-0.0327	
532.00000	-0.0325	
532.20000	-0.0325	
532.40000	-0.0328	
532.60000	-0.0323	
532.80000	-0.0327	
533.00000	-0.0327	
533.20000	-0.0331	
533.40000	-0.0331	
533.60000	-0.0331	
533.80000	-0.0328	
534.00000	-0.0331	
534.20000	-0.0328	
534.40000	-0.0331	
534.60000	-0.0331	
534.80000	-0.0328	
535.00000	-0.0327	
535.20000	-0.0328	
535.40000	-0.0331	
535.60000	-0.0331	
535.80000	-0.0328	
536.00000	-0.0328	
536.20000	-0.0331	
536.40000	-0.0327	
536.60000	-0.0331	
536.80000	-0.0331	
537.00000	-0.0328	
537.20000	-0.0333	
537.40000	-0.0331	
537.60000	-0.0333	
537.80000	-0.0331	
538.00000	-0.0333	
538.20000	-0.0334	
538.40000	-0.0336	
538.60000	-0.0336	
538.80000	-0.0334	
539.00000	-0.0334	
539.20000	-0.0331	
539.40000	-0.0334	
539.60000	-0.0333	
539.80000	-0.0334	
540.00000	-0.0334	
540.20000	-0.0334	
540.40000	-0.0334	
540.60000	-0.0337	
540.80000	-0.0336	
541.00000	-0.0336	
541.20000	-0.0339	
541.40000	-0.0339	
541.60000	-0.0342	
541.80000	-0.0339	
542.00000	-0.0343	
542.20000	-0.0343	
542.40000	-0.0343	
542.60000	-0.0346	
542.80000	-0.0345	
543.00000	-0.0346	
543.20000	-0.0343	
543.40000	-0.0345	
543.60000	-0.0343	
543.80000	-0.0342	
544.00000	-0.0343	
544.20000	-0.0342	
544.40000	-0.0342	
544.60000	-0.0345	
544.80000	-0.0345	
545.00000	-0.0346	
545.20000	-0.0346	
545.40000	-0.0346	
545.60000	-0.0343	
545.80000	-0.0345	
546.00000	-0.0348	
546.20000	-0.0348	
546.40000	-0.0346	
546.60000	-0.0346	
546.80000	-0.0348	
547.00000	-0.0345	
547.20000	-0.0348	
547.40000	-0.0348	
547.60000	-0.0349	
547.80000	-0.0348	
548.00000	-0.0349	
548.20000	-0.0349	
548.40000	-0.0346	
548.60000	-0.0346	
548.80000	-0.0348	
549.00000	-0.0352	
549.20000	-0.0348	
549.40000	-0.0348	
549.60000	-0.0348	
549.80000	-0.0348	
550.00000	-0.0349	
550.20000	-0.0349	
550.40000	-0.0356	
550.60000	-0.0352	
550.80000	-0.0349	
551.00000	-0.0352	
551.20000	-0.0354	
551.40000	-0.0352	
551.60000	-0.0352	
551.80000	-0.0354	
552.00000	-0.0354	
552.20000	-0.0354	
552.40000	-0.0356	
552.60000	-0.0357	
552.80000	-0.0356	
553.00000	-0.0356	
553.20000	-0.0357	
553.40000	-0.0360	
553.60000	-0.0362	
553.80000	-0.0363	
554.00000	-0.0362	
554.20000	-0.0362	
554.40000	-0.0362	
554.60000	-0.0362	
554.80000	-0.0362	
555.00000	-0.0363	
555.20000	-0.0366	
555.40000	-0.0363	
555.60000	-0.0365	
555.80000	-0.0365	
556.00000	-0.0365	
556.20000	-0.0363	
556.40000	-0.0363	
556.60000	-0.0363	
556.80000	-0.0366	
557.00000	-0.0365	
557.20000	-0.0366	
557.40000	-0.0365	
557.60000	-0.0368	
557.80000	-0.0366	
558.00000	-0.0368	
558.20000	-0.0368	
558.40000	-0.0369	
558.60000	-0.0372	
558.80000	-0.0372	
559.00000	-0.0372	
559.20000	-0.0375	
559.40000	-0.0374	
559.60000	-0.0375	
559.80000	-0.0378	
560.00000	-0.0377	
560.20000	-0.0377	
560.40000	-0.0377	
560.60000	-0.0375	
560.80000	-0.0374	
561.00000	-0.0378	
561.20000	-0.0378	
561.40000	-0.0380	
561.60000	-0.0380	
561.80000	-0.0381	
562.00000	-0.0380	
562.20000	-0.0378	
562.40000	-0.0378	
562.60000	-0.0380	
562.80000	-0.0381	
563.00000	-0.0383	
563.20000	-0.0380	
563.40000	-0.0380	
563.60000	-0.0381	
563.80000	-0.0381	
564.00000	-0.0381	
564.20000	-0.0383	
564.40000	-0.0381	
564.60000	-0.0381	
564.80000	-0.0381	
565.00000	-0.0381	
565.20000	-0.0381	
565.40000	-0.0383	
565.60000	-0.0385	
565.80000	-0.0381	
566.00000	-0.0380	
566.20000	-0.0383	
566.40000	-0.0383	
566.60000	-0.0383	
566.80000	-0.0383	
567.00000	-0.0383	
567.20000	-0.0385	
567.40000	-0.0385	
567.60000	-0.0383	
567.80000	-0.0388	
568.00000	-0.0386	
568.20000	-0.0386	
568.40000	-0.0388	
568.60000	-0.0385	
568.80000	-0.0389	
569.00000	-0.0388	
569.20000	-0.0385	
569.40000	-0.0388	
569.60000	-0.0386	
569.80000	-0.0386	
570.00000	-0.0391	
570.20000	-0.0391	
570.40000	-0.0394	
570.60000	-0.0394	
570.80000	-0.0391	
571.00000	-0.0394	
571.20000	-0.0391	
571.40000	-0.0391	
571.60000	-0.0391	
571.80000	-0.0394	
572.00000	-0.0391	
572.20000	-0.0391	
572.40000	-0.0391	
572.60000	-0.0391	
572.80000	-0.0391	
573.00000	-0.0388	
573.20000	-0.0388	
573.40000	-0.0388	
573.60000	-0.0389	
573.80000	-0.0386	
574.00000	-0.0389	
574.20000	-0.0391	
574.40000	-0.0391	
574.60000	-0.0394	
574.80000	-0.0391	
575.00000	-0.0391	
575.20000	-0.0394	
575.40000	-0.0391	
575.60000	-0.0395	
575.80000	-0.0397	
576.00000	-0.0397	
576.20000	-0.0398	
576.40000	-0.0403	
576.60000	-0.0400	
576.80000	-0.0397	
577.00000	-0.0397	
577.20000	-0.0395	
577.40000	-0.0397	
577.60000	-0.0394	
577.80000	-0.0395	
578.00000	-0.0401	
578.20000	-0.0397	
578.40000	-0.0398	
578.60000	-0.0398	
578.80000	-0.0398	
579.00000	-0.0398	
579.20000	-0.0395	
579.40000	-0.0398	
579.60000	-0.0395	
579.80000	-0.0398	
580.00000	-0.0398	
580.20000	-0.0398	
580.40000	-0.0401	
580.60000	-0.0398	
580.80000	-0.0400	
581.00000	-0.0400	
581.20000	-0.0401	
581.40000	-0.0400	
581.60000	-0.0404	
581.80000	-0.0401	
582.00000	-0.0401	
582.20000	-0.0403	
582.40000	-0.0404	
582.60000	-0.0403	
582.80000	-0.0403	
583.00000	-0.0403	
583.20000	-0.0403	
583.40000	-0.0406	
583.60000	-0.0404	
583.80000	-0.0403	
584.00000	-0.0404	
584.20000	-0.0404	
584.40000	-0.0404	
584.60000	-0.0406	
584.80000	-0.0407	
585.00000	-0.0403	
585.20000	-0.0406	
585.40000	-0.0406	
585.60000	-0.0403	
585.80000	-0.0404	
586.00000	-0.0406	
586.20000	-0.0404	
586.40000	-0.0403	
586.60000	-0.0406	
586.80000	-0.0407	
587.00000	-0.0409	
587.20000	-0.0412	
587.40000	-0.0410	
587.60000	-0.0409	
587.80000	-0.0409	
588.00000	-0.0412	
588.20000	-0.0410	
588.40000	-0.0410	
588.60000	-0.0415	
588.80000	-0.0412	
589.00000	-0.0409	
589.20000	-0.0407	
589.40000	-0.0407	
589.60000	-0.0407	
589.80000	-0.0407	
590.00000	-0.0407	
590.20000	-0.0407	
590.40000	-0.0406	
590.60000	-0.0406	
590.80000	-0.0410	
591.00000	-0.0409	
591.20000	-0.0412	
591.40000	-0.0409	
591.60000	-0.0410	
591.80000	-0.0412	
592.00000	-0.0410	
592.20000	-0.0407	
592.40000	-0.0410	
592.60000	-0.0415	
592.80000	-0.0415	
593.00000	-0.0415	
593.20000	-0.0420	
593.40000	-0.0418	
593.60000	-0.0415	
593.80000	-0.0415	
594.00000	-0.0412	
594.20000	-0.0412	
594.40000	-0.0412	
594.60000	-0.0415	
594.80000	-0.0418	
595.00000	-0.0412	
595.20000	-0.0415	
595.40000	-0.0412	
595.60000	-0.0412	
595.80000	-0.0412	
596.00000	-0.0412	
596.20000	-0.0410	
596.40000	-0.0418	
596.60000	-0.0412	
596.80000	-0.0412	
597.00000	-0.0417	
597.20000	-0.0415	
597.40000	-0.0415	
597.60000	-0.0415	
597.80000	-0.0410	
598.00000	-0.0412	
598.20000	-0.0412	
598.40000	-0.0410	
598.60000	-0.0412	
598.80000	-0.0409	
599.00000	-0.0410	
599.20000	-0.0412	
599.40000	-0.0412	
599.60000	-0.0412	
599.80000	-0.0412	
600.00000	-0.0410	
600.20000	-0.0415	
600.40000	-0.0417	
600.60000	-0.0415	
600.80000	-0.0415	
601.00000	-0.0418	
601.20000	-0.0415	
601.40000	-0.0415	
601.60000	-0.0417	
601.80000	-0.0412	
602.00000	-0.0412	
602.20000	-0.0415	
602.40000	-0.0410	
602.60000	-0.0410	
602.80000	-0.0415	
603.00000	-0.0410	
603.20000	-0.0410	
603.40000	-0.0409	
603.60000	-0.0412	
603.80000	-0.0415	
604.00000	-0.0418	
604.20000	-0.0415	
604.40000	-0.0412	
604.60000	-0.0412	
604.80000	-0.0412	
605.00000	-0.0417	
605.20000	-0.0415	
605.40000	-0.0415	
605.60000	-0.0417	
605.80000	-0.0415	
606.00000	-0.0415	
606.20000	-0.0415	
606.40000	-0.0415	
606.60000	-0.0409	
606.80000	-0.0417	
607.00000	-0.0410	
607.20000	-0.0407	
607.40000	-0.0409	
607.60000	-0.0412	
607.80000	-0.0410	
608.00000	-0.0412	
608.20000	-0.0409	
608.40000	-0.0412	
608.60000	-0.0410	
608.80000	-0.0415	
609.00000	-0.0415	
609.20000	-0.0417	
609.40000	-0.0415	
609.60000	-0.0415	
609.80000	-0.0418	
610.00000	-0.0418	
610.20000	-0.0417	
610.40000	-0.0415	
610.60000	-0.0410	
610.80000	-0.0415	
611.00000	-0.0410	
611.20000	-0.0412	
611.40000	-0.0418	
611.60000	-0.0420	
611.80000	-0.0417	
612.00000	-0.0415	
612.20000	-0.0415	
612.40000	-0.0415	
612.60000	-0.0415	
612.80000	-0.0415	
613.00000	-0.0412	
613.20000	-0.0410	
613.40000	-0.0410	
613.60000	-0.0415	
613.80000	-0.0415	
614.00000	-0.0417	
614.20000	-0.0412	
614.40000	-0.0415	
614.60000	-0.0412	
614.80000	-0.0409	
615.00000	-0.0409	
615.20000	-0.0410	
615.40000	-0.0410	
615.60000	-0.0410	
615.80000	-0.0410	
616.00000	-0.0410	
616.20000	-0.0410	
616.40000	-0.0409	
616.60000	-0.0410	
616.80000	-0.0409	
617.00000	-0.0410	
617.20000	-0.0410	
617.40000	-0.0407	
617.60000	-0.0409	
617.80000	-0.0409	
618.00000	-0.0409	
618.20000	-0.0409	
618.40000	-0.0409	
618.60000	-0.0407	
618.80000	-0.0407	
619.00000	-0.0409	
619.20000	-0.0406	
619.40000	-0.0407	
619.60000	-0.0406	
619.80000	-0.0406	
620.00000	-0.0406	
620.20000	-0.0409	
620.40000	-0.0407	
620.60000	-0.0409	
620.80000	-0.0409	
621.00000	-0.0407	
621.20000	-0.0406	
621.40000	-0.0406	
621.60000	-0.0406	
621.80000	-0.0409	
622.00000	-0.0409	
622.20000	-0.0409	
622.40000	-0.0406	
622.60000	-0.0406	
622.80000	-0.0407	
623.00000	-0.0406	
623.20000	-0.0406	
623.40000	-0.0406	
623.60000	-0.0406	
623.80000	-0.0406	
624.00000	-0.0407	
624.20000	-0.0404	
624.40000	-0.0406	
624.60000	-0.0409	
624.80000	-0.0407	
625.00000	-0.0409	
625.20000	-0.0410	
625.40000	-0.0409	
625.60000	-0.0410	
625.80000	-0.0409	
626.00000	-0.0412	
626.20000	-0.0412	
626.40000	-0.0410	
626.60000	-0.0412	
626.80000	-0.0410	
627.00000	-0.0410	
627.20000	-0.0409	
627.40000	-0.0409	
627.60000	-0.0407	
627.80000	-0.0409	
628.00000	-0.0410	
628.20000	-0.0410	
628.40000	-0.0409	
628.60000	-0.0409	
628.80000	-0.0407	
629.00000	-0.0410	
629.20000	-0.0407	
629.40000	-0.0407	
629.60000	-0.0409	
629.80000	-0.0409	
630.00000	-0.0407	
630.20000	-0.0410	
630.40000	-0.0410	
630.60000	-0.0412	
630.80000	-0.0407	
631.00000	-0.0407	
631.20000	-0.0407	
631.40000	-0.0407	
631.60000	-0.0407	
631.80000	-0.0406	
632.00000	-0.0409	
632.20000	-0.0407	
632.40000	-0.0407	
632.60000	-0.0404	
632.80000	-0.0406	
633.00000	-0.0407	
633.20000	-0.0406	
633.40000	-0.0407	
633.60000	-0.0407	
633.80000	-0.0409	
634.00000	-0.0406	
634.20000	-0.0407	
634.40000	-0.0409	
634.60000	-0.0406	
634.80000	-0.0403	
635.00000	-0.0409	
635.20000	-0.0407	
635.40000	-0.0406	
635.60000	-0.0404	
635.80000	-0.0406	
636.00000	-0.0406	
636.20000	-0.0406	
636.40000	-0.0403	
636.60000	-0.0406	
636.80000	-0.0406	
637.00000	-0.0407	
637.20000	-0.0409	
637.40000	-0.0407	
637.60000	-0.0410	
637.80000	-0.0407	
638.00000	-0.0409	
638.20000	-0.0407	
638.40000	-0.0410	
638.60000	-0.0412	
638.80000	-0.0409	
639.00000	-0.0407	
639.20000	-0.0404	
639.40000	-0.0403	
639.60000	-0.0403	
639.80000	-0.0403	
640.00000	-0.0401	
640.20000	-0.0401	
640.40000	-0.0401	
640.60000	-0.0400	
640.80000	-0.0400	
641.00000	-0.0398	
641.20000	-0.0397	
641.40000	-0.0400	
641.60000	-0.0400	
641.80000	-0.0401	
642.00000	-0.0401	
642.20000	-0.0401	
642.40000	-0.0398	
642.60000	-0.0401	
642.80000	-0.0404	
643.00000	-0.0403	
643.20000	-0.0401	
643.40000	-0.0404	
643.60000	-0.0400	
643.80000	-0.0398	
644.00000	-0.0400	
644.20000	-0.0398	
644.40000	-0.0398	
644.60000	-0.0401	
644.80000	-0.0404	
645.00000	-0.0401	
645.20000	-0.0400	
645.40000	-0.0398	
645.60000	-0.0400	
645.80000	-0.0397	
646.00000	-0.0395	
646.20000	-0.0397	
646.40000	-0.0398	
646.60000	-0.0400	
646.80000	-0.0400	
647.00000	-0.0398	
647.20000	-0.0398	
647.40000	-0.0398	
647.60000	-0.0398	
647.80000	-0.0397	
648.00000	-0.0395	
648.20000	-0.0397	
648.40000	-0.0397	
648.60000	-0.0395	
648.80000	-0.0398	
649.00000	-0.0398	
649.20000	-0.0398	
649.40000	-0.0398	
649.60000	-0.0401	
649.80000	-0.0400	
650.00000	-0.0397	
650.20000	-0.0397	
650.40000	-0.0401	
650.60000	-0.0401	
650.80000	-0.0400	
651.00000	-0.0398	
651.20000	-0.0400	
651.40000	-0.0398	
651.60000	-0.0400	
651.80000	-0.0397	
652.00000	-0.0398	
652.20000	-0.0398	
652.40000	-0.0398	
652.60000	-0.0398	
652.80000	-0.0400	
653.00000	-0.0398	
653.20000	-0.0397	
653.40000	-0.0400	
653.60000	-0.0400	
653.80000	-0.0401	
654.00000	-0.0401	
654.20000	-0.0401	
654.40000	-0.0397	
654.60000	-0.0395	
654.80000	-0.0401	
655.00000	-0.0398	
655.20000	-0.0397	
655.40000	-0.0398	
655.60000	-0.0395	
655.80000	-0.0397	
656.00000	-0.0395	
656.20000	-0.0394	
656.40000	-0.0389	
656.60000	-0.0391	
656.80000	-0.0391	
657.00000	-0.0394	
657.20000	-0.0394	
657.40000	-0.0391	
657.60000	-0.0389	
657.80000	-0.0395	
658.00000	-0.0394	
658.20000	-0.0394	
658.40000	-0.0394	
658.60000	-0.0394	
658.80000	-0.0394	
659.00000	-0.0394	
659.20000	-0.0397	
659.40000	-0.0398	
659.60000	-0.0398	
659.80000	-0.0398	
660.00000	-0.0401	
660.20000	-0.0400	
660.40000	-0.0397	
660.60000	-0.0397	
660.80000	-0.0397	
661.00000	-0.0394	
661.20000	-0.0395	
661.40000	-0.0398	
661.60000	-0.0394	
661.80000	-0.0395	
662.00000	-0.0395	
662.20000	-0.0395	
662.40000	-0.0391	
662.60000	-0.0394	
662.80000	-0.0395	
663.00000	-0.0394	
663.20000	-0.0395	
663.40000	-0.0395	
663.60000	-0.0395	
663.80000	-0.0394	
664.00000	-0.0394	
664.20000	-0.0395	
664.40000	-0.0395	
664.60000	-0.0394	
664.80000	-0.0391	
665.00000	-0.0394	
665.20000	-0.0391	
665.40000	-0.0394	
665.60000	-0.0394	
665.80000	-0.0391	
666.00000	-0.0389	
666.20000	-0.0389	
666.40000	-0.0389	
666.60000	-0.0389	
666.80000	-0.0388	
667.00000	-0.0386	
667.20000	-0.0388	
667.40000	-0.0386	
667.60000	-0.0388	
667.80000	-0.0388	
668.00000	-0.0388	
668.20000	-0.0391	
668.40000	-0.0389	
668.60000	-0.0389	
668.80000	-0.0389	
669.00000	-0.0388	
669.20000	-0.0388	
669.40000	-0.0388	
669.60000	-0.0389	
669.80000	-0.0386	
670.00000	-0.0388	
670.20000	-0.0391	
670.40000	-0.0391	
670.60000	-0.0389	
670.80000	-0.0391	
671.00000	-0.0389	
671.20000	-0.0388	
671.40000	-0.0388	
671.60000	-0.0389	
671.80000	-0.0388	
672.00000	-0.0386	
672.20000	-0.0386	
672.40000	-0.0386	
672.60000	-0.0386	
672.80000	-0.0385	
673.00000	-0.0381	
673.20000	-0.0385	
673.40000	-0.0385	
673.60000	-0.0385	
673.80000	-0.0386	
674.00000	-0.0388	
674.20000	-0.0385	
674.40000	-0.0386	
674.60000	-0.0386	
674.80000	-0.0385	
675.00000	-0.0388	
675.20000	-0.0386	
675.40000	-0.0383	
675.60000	-0.0386	
675.80000	-0.0388	
676.00000	-0.0388	
676.20000	-0.0386	
676.40000	-0.0389	
676.60000	-0.0391	
676.80000	-0.0388	
677.00000	-0.0388	
677.20000	-0.0385	
677.40000	-0.0381	
677.60000	-0.0385	
677.80000	-0.0386	
678.00000	-0.0385	
678.20000	-0.0386	
678.40000	-0.0386	
678.60000	-0.0386	
678.80000	-0.0388	
679.00000	-0.0386	
679.20000	-0.0383	
679.40000	-0.0386	
679.60000	-0.0385	
679.80000	-0.0385	
680.00000	-0.0381	
680.20000	-0.0386	
680.40000	-0.0385	
680.60000	-0.0383	
680.80000	-0.0385	
681.00000	-0.0381	
681.20000	-0.0383	
681.40000	-0.0385	
681.60000	-0.0385	
681.80000	-0.0385	
682.00000	-0.0381	
682.20000	-0.0381	
682.40000	-0.0383	
682.60000	-0.0385	
682.80000	-0.0385	
683.00000	-0.0385	
683.20000	-0.0383	
683.40000	-0.0385	
683.60000	-0.0383	
683.80000	-0.0383	
684.00000	-0.0381	
684.20000	-0.0381	
684.40000	-0.0383	
684.60000	-0.0381	
684.80000	-0.0383	
685.00000	-0.0381	
685.20000	-0.0381	
685.40000	-0.0380	
685.60000	-0.0381	
685.80000	-0.0381	
686.00000	-0.0380	
686.20000	-0.0381	
686.40000	-0.0378	
686.60000	-0.0378	
686.80000	-0.0381	
687.00000	-0.0380	
687.20000	-0.0383	
687.40000	-0.0383	
687.60000	-0.0385	
687.80000	-0.0385	
688.00000	-0.0383	
688.20000	-0.0385	
688.40000	-0.0383	
688.60000	-0.0383	
688.80000	-0.0383	
689.00000	-0.0380	
689.20000	-0.0381	
689.40000	-0.0385	
689.60000	-0.0380	
689.80000	-0.0380	
690.00000	-0.0381	
690.20000	-0.0381	
690.40000	-0.0381	
690.60000	-0.0381	
690.80000	-0.0383	
691.00000	-0.0385	
691.20000	-0.0383	
691.40000	-0.0386	
691.60000	-0.0383	
691.80000	-0.0381	
692.00000	-0.0383	
692.20000	-0.0381	
692.40000	-0.0383	
692.60000	-0.0383	
692.80000	-0.0383	
693.00000	-0.0385	
693.20000	-0.0388	
693.40000	-0.0389	
693.60000	-0.0388	
693.80000	-0.0385	
694.00000	-0.0385	
694.20000	-0.0385	
694.40000	-0.0383	
694.60000	-0.0386	
694.80000	-0.0385	
695.00000	-0.0386	
695.20000	-0.0385	
695.40000	-0.0386	
695.60000	-0.0385	
695.80000	-0.0386	
696.00000	-0.0386	
696.20000	-0.0386	
696.40000	-0.0386	
696.60000	-0.0386	
696.80000	-0.0391	
697.00000	-0.0386	
697.20000	-0.0386	
697.40000	-0.0383	
697.60000	-0.0381	
697.80000	-0.0385	
698.00000	-0.0381	
698.20000	-0.0381	
698.40000	-0.0385	
698.60000	-0.0381	
698.80000	-0.0381	
699.00000	-0.0383	
699.20000	-0.0381	
699.40000	-0.0380	
699.60000	-0.0383	
699.80000	-0.0383	
700.00000	-0.0381	
700.20000	-0.0385	
700.40000	-0.0380	
700.60000	-0.0381	
700.80000	-0.0378	
701.00000	-0.0380	
701.20000	-0.0383	
701.40000	-0.0381	
701.60000	-0.0381	
701.80000	-0.0381	
702.00000	-0.0385	
702.20000	-0.0381	
702.40000	-0.0381	
702.60000	-0.0383	
702.80000	-0.0380	
703.00000	-0.0378	
703.20000	-0.0380	
703.40000	-0.0380	
703.60000	-0.0380	
703.80000	-0.0383	
704.00000	-0.0385	
704.20000	-0.0383	
704.40000	-0.0383	
704.60000	-0.0380	
704.80000	-0.0381	
705.00000	-0.0381	
705.20000	-0.0381	
705.40000	-0.0381	
705.60000	-0.0380	
705.80000	-0.0377	
706.00000	-0.0380	
706.20000	-0.0378	
706.40000	-0.0381	
706.60000	-0.0378	
706.80000	-0.0381	
707.00000	-0.0383	
707.20000	-0.0383	
707.40000	-0.0385	
707.60000	-0.0386	
707.80000	-0.0389	
708.00000	-0.0388	
708.20000	-0.0386	
708.40000	-0.0389	
708.60000	-0.0388	
708.80000	-0.0389	
709.00000	-0.0391	
709.20000	-0.0389	
709.40000	-0.0388	
709.60000	-0.0388	
709.80000	-0.0388	
710.00000	-0.0388	
710.20000	-0.0388	
710.40000	-0.0386	
710.60000	-0.0385	
710.80000	-0.0385	
711.00000	-0.0381	
711.20000	-0.0381	
711.40000	-0.0385	
711.60000	-0.0386	
711.80000	-0.0381	
712.00000	-0.0381	
712.20000	-0.0385	
712.40000	-0.0381	
712.60000	-0.0380	
712.80000	-0.0381	
713.00000	-0.0383	
713.20000	-0.0385	
713.40000	-0.0381	
713.60000	-0.0386	
713.80000	-0.0386	
714.00000	-0.0388	
714.20000	-0.0389	
714.40000	-0.0389	
714.60000	-0.0389	
714.80000	-0.0388	
715.00000	-0.0389	
715.20000	-0.0394	
715.40000	-0.0394	
715.60000	-0.0391	
715.80000	-0.0386	
716.00000	-0.0388	
716.20000	-0.0389	
716.40000	-0.0388	
716.60000	-0.0389	
716.80000	-0.0388	
717.00000	-0.0386	
717.20000	-0.0385	
717.40000	-0.0385	
717.60000	-0.0386	
717.80000	-0.0386	
718.00000	-0.0383	
718.20000	-0.0388	
718.40000	-0.0385	
718.60000	-0.0385	
718.80000	-0.0385	
719.00000	-0.0386	
719.20000	-0.0385	
719.40000	-0.0385	
719.60000	-0.0383	
719.80000	-0.0386	
720.00000	-0.0385	
720.20000	-0.0388	
720.40000	-0.0388	
720.60000	-0.0386	
720.80000	-0.0391	
721.00000	-0.0388	
721.20000	-0.0386	
721.40000	-0.0391	
721.60000	-0.0389	
721.80000	-0.0391	
722.00000	-0.0394	
722.20000	-0.0389	
722.40000	-0.0389	
722.60000	-0.0386	
722.80000	-0.0388	
723.00000	-0.0386	
723.20000	-0.0386	
723.40000	-0.0388	
723.60000	-0.0385	
723.80000	-0.0388	
724.00000	-0.0386	
724.20000	-0.0386	
724.40000	-0.0388	
724.60000	-0.0386	
724.80000	-0.0388	
725.00000	-0.0386	
725.20000	-0.0389	
725.40000	-0.0391	
725.60000	-0.0388	
725.80000	-0.0389	
726.00000	-0.0391	
726.20000	-0.0395	
726.40000	-0.0397	
726.60000	-0.0394	
726.80000	-0.0394	
727.00000	-0.0391	
727.20000	-0.0388	
727.40000	-0.0388	
727.60000	-0.0389	
727.80000	-0.0388	
728.00000	-0.0389	
728.20000	-0.0389	
728.40000	-0.0389	
728.60000	-0.0391	
728.80000	-0.0389	
729.00000	-0.0389	
729.20000	-0.0386	
729.40000	-0.0386	
729.60000	-0.0388	
729.80000	-0.0391	
730.00000	-0.0389	
730.20000	-0.0391	
730.40000	-0.0394	
730.60000	-0.0391	
730.80000	-0.0389	
731.00000	-0.0388	
731.20000	-0.0386	
731.40000	-0.0389	
731.60000	-0.0389	
731.80000	-0.0389	
732.00000	-0.0391	
732.20000	-0.0391	
732.40000	-0.0394	
732.60000	-0.0391	
732.80000	-0.0394	
733.00000	-0.0394	
733.20000	-0.0391	
733.40000	-0.0389	
733.60000	-0.0389	
733.80000	-0.0394	
734.00000	-0.0391	
734.20000	-0.0391	
734.40000	-0.0394	
734.60000	-0.0395	
734.80000	-0.0388	
735.00000	-0.0389	
735.20000	-0.0394	
735.40000	-0.0391	
735.60000	-0.0394	
735.80000	-0.0389	
736.00000	-0.0389	
736.20000	-0.0389	
736.40000	-0.0386	
736.60000	-0.0389	
736.80000	-0.0389	
737.00000	-0.0391	
737.20000	-0.0394	
737.40000	-0.0394	
737.60000	-0.0389	
737.80000	-0.0391	
738.00000	-0.0388	
738.20000	-0.0389	
738.40000	-0.0391	
738.60000	-0.0389	
738.80000	-0.0388	
739.00000	-0.0388	
739.20000	-0.0388	
739.40000	-0.0389	
739.60000	-0.0389	
739.80000	-0.0389	
740.00000	-0.0391	
740.20000	-0.0386	
740.40000	-0.0388	
740.60000	-0.0389	
740.80000	-0.0389	
741.00000	-0.0391	
741.20000	-0.0385	
741.40000	-0.0386	
741.60000	-0.0386	
741.80000	-0.0385	
742.00000	-0.0386	
742.20000	-0.0386	
742.40000	-0.0388	
742.60000	-0.0388	
742.80000	-0.0386	
743.00000	-0.0388	
743.20000	-0.0391	
743.40000	-0.0389	
743.60000	-0.0388	
743.80000	-0.0388	
744.00000	-0.0388	
744.20000	-0.0385	
744.40000	-0.0385	
744.60000	-0.0386	
744.80000	-0.0389	
745.00000	-0.0389	
745.20000	-0.0391	
745.40000	-0.0394	
745.60000	-0.0394	
745.80000	-0.0395	
746.00000	-0.0395	
746.20000	-0.0394	
746.40000	-0.0394	
746.60000	-0.0394	
746.80000	-0.0397	
747.00000	-0.0395	
747.20000	-0.0394	
747.40000	-0.0394	
747.60000	-0.0389	
747.80000	-0.0391	
748.00000	-0.0391	
748.20000	-0.0391	
748.40000	-0.0394	
748.60000	-0.0388	
748.80000	-0.0388	
749.00000	-0.0394	
749.20000	-0.0388	
749.40000	-0.0389	
749.60000	-0.0391	
749.80000	-0.0391	
750.00000	-0.0391	
750.20000	-0.0394	
750.40000	-0.0389	
750.60000	-0.0389	
750.80000	-0.0389	
751.00000	-0.0391	
751.20000	-0.0391	
751.40000	-0.0389	
751.60000	-0.0395	
751.80000	-0.0394	
752.00000	-0.0397	
752.20000	-0.0395	
752.40000	-0.0395	
752.60000	-0.0395	
752.80000	-0.0397	
753.00000	-0.0398	
753.20000	-0.0395	
753.40000	-0.0397	
753.60000	-0.0398	
753.80000	-0.0400	
754.00000	-0.0400	
754.20000	-0.0403	
754.40000	-0.0403	
754.60000	-0.0400	
754.80000	-0.0401	
755.00000	-0.0400	
755.20000	-0.0401	
755.40000	-0.0397	
755.60000	-0.0395	
755.80000	-0.0395	
756.00000	-0.0391	
756.20000	-0.0389	
756.40000	-0.0388	
756.60000	-0.0388	
756.80000	-0.0386	
757.00000	-0.0386	
757.20000	-0.0385	
757.40000	-0.0385	
757.60000	-0.0388	
757.80000	-0.0385	
758.00000	-0.0385	
758.20000	-0.0386	
758.40000	-0.0388	
758.60000	-0.0386	
758.80000	-0.0383	
759.00000	-0.0385	
759.20000	-0.0388	
759.40000	-0.0385	
759.60000	-0.0385	
759.80000	-0.0385	
760.00000	-0.0385	
760.20000	-0.0385	
760.40000	-0.0381	
760.60000	-0.0381	
760.80000	-0.0378	
761.00000	-0.0378	
761.20000	-0.0381	
761.40000	-0.0381	
761.60000	-0.0383	
761.80000	-0.0380	
762.00000	-0.0380	
762.20000	-0.0381	
762.40000	-0.0380	
762.60000	-0.0378	
762.80000	-0.0381	
763.00000	-0.0385	
763.20000	-0.0380	
763.40000	-0.0381	
763.60000	-0.0386	
763.80000	-0.0383	
764.00000	-0.0386	
764.20000	-0.0385	
764.40000	-0.0386	
764.60000	-0.0386	
764.80000	-0.0386	
765.00000	-0.0386	
765.20000	-0.0388	
765.40000	-0.0388	
765.60000	-0.0388	
765.80000	-0.0386	
766.00000	-0.0386	
766.20000	-0.0388	
766.40000	-0.0385	
766.60000	-0.0391	
766.80000	-0.0389	
767.00000	-0.0388	
767.20000	-0.0386	
767.40000	-0.0385	
767.60000	-0.0388	
767.80000	-0.0388	
768.00000	-0.0385	
768.20000	-0.0388	
768.40000	-0.0386	
768.60000	-0.0386	
768.80000	-0.0385	
769.00000	-0.0385	
769.20000	-0.0388	
769.40000	-0.0385	
769.60000	-0.0386	
769.80000	-0.0388	
770.00000	-0.0386	
770.20000	-0.0391	
770.40000	-0.0391	
770.60000	-0.0389	
770.80000	-0.0391	
771.00000	-0.0389	
771.20000	-0.0386	
771.40000	-0.0386	
771.60000	-0.0388	
771.80000	-0.0388	
772.00000	-0.0388	
772.20000	-0.0383	
772.40000	-0.0385	
772.60000	-0.0383	
772.80000	-0.0385	
773.00000	-0.0386	
773.20000	-0.0385	
773.40000	-0.0385	
773.60000	-0.0383	
773.80000	-0.0385	
774.00000	-0.0383	
774.20000	-0.0385	
774.40000	-0.0381	
774.60000	-0.0383	
774.80000	-0.0381	
775.00000	-0.0381	
775.20000	-0.0385	
775.40000	-0.0381	
775.60000	-0.0380	
775.80000	-0.0383	
776.00000	-0.0388	
776.20000	-0.0381	
776.40000	-0.0383	
776.60000	-0.0385	
776.80000	-0.0385	
777.00000	-0.0380	
777.20000	-0.0380	
777.40000	-0.0378	
777.60000	-0.0378	
777.80000	-0.0378	
778.00000	-0.0380	
778.20000	-0.0380	
778.40000	-0.0381	
778.60000	-0.0383	
778.80000	-0.0385	
779.00000	-0.0385	
779.20000	-0.0385	
779.40000	-0.0381	
779.60000	-0.0380	
779.80000	-0.0381	
780.00000	-0.0381	
780.20000	-0.0383	
780.40000	-0.0381	
780.60000	-0.0386	
780.80000	-0.0380	
781.00000	-0.0380	
781.20000	-0.0378	
781.40000	-0.0378	
781.60000	-0.0380	
781.80000	-0.0377	
782.00000	-0.0381	
782.20000	-0.0378	
782.40000	-0.0381	
782.60000	-0.0380	
782.80000	-0.0381	
783.00000	-0.0378	
783.20000	-0.0380	
783.40000	-0.0383	
783.60000	-0.0381	
783.80000	-0.0381	
784.00000	-0.0380	
784.20000	-0.0380	
784.40000	-0.0383	
784.60000	-0.0383	
784.80000	-0.0385	
785.00000	-0.0383	
785.20000	-0.0385	
785.40000	-0.0381	
785.60000	-0.0383	
785.80000	-0.0385	
786.00000	-0.0383	
786.20000	-0.0380	
786.40000	-0.0380	
786.60000	-0.0381	
786.80000	-0.0383	
787.00000	-0.0383	
787.20000	-0.0383	
787.40000	-0.0383	
787.60000	-0.0385	
787.80000	-0.0383	
788.00000	-0.0383	
788.20000	-0.0383	
788.40000	-0.0386	
788.60000	-0.0385	
788.80000	-0.0385	
789.00000	-0.0383	
789.20000	-0.0380	
789.40000	-0.0381	
789.60000	-0.0383	
789.80000	-0.0381	
790.00000	-0.0380	
790.20000	-0.0383	
790.40000	-0.0381	
790.60000	-0.0378	
790.80000	-0.0380	
791.00000	-0.0381	
791.20000	-0.0381	
791.40000	-0.0377	
791.60000	-0.0381	
791.80000	-0.0378	
792.00000	-0.0380	
792.20000	-0.0378	
792.40000	-0.0380	
792.60000	-0.0381	
792.80000	-0.0378	
793.00000	-0.0381	
793.20000	-0.0383	
793.40000	-0.0385	
793.60000	-0.0381	
793.80000	-0.0380	
794.00000	-0.0378	
794.20000	-0.0380	
794.40000	-0.0381	
794.60000	-0.0378	
794.80000	-0.0380	
795.00000	-0.0378	
795.20000	-0.0380	
795.40000	-0.0378	
795.60000	-0.0381	
795.80000	-0.0383	
796.00000	-0.0381	
796.20000	-0.0381	
796.40000	-0.0385	
796.60000	-0.0380	
796.80000	-0.0380	
797.00000	-0.0381	
797.20000	-0.0378	
797.40000	-0.0380	
797.60000	-0.0381	
797.80000	-0.0377	
798.00000	-0.0377	
798.20000	-0.0377	
798.40000	-0.0374	
798.60000	-0.0374	
798.80000	-0.0377	
799.00000	-0.0378	
799.20000	-0.0375	
799.40000	-0.0374	
799.60000	-0.0377	
799.80000	-0.0377	
800.00000	-0.0378	
800.20000	-0.0377	
800.40000	-0.0377	
800.60000	-0.0375	
800.80000	-0.0377	
801.00000	-0.0375	
801.20000	-0.0372	
801.40000	-0.0374	
801.60000	-0.0372	
801.80000	-0.0372	
802.00000	-0.0374	
802.20000	-0.0375	
802.40000	-0.0375	
802.60000	-0.0375	
802.80000	-0.0374	
803.00000	-0.0369	
803.20000	-0.0374	
803.40000	-0.0372	
803.60000	-0.0374	
803.80000	-0.0374	
804.00000	-0.0378	
804.20000	-0.0374	
804.40000	-0.0375	
804.60000	-0.0375	
804.80000	-0.0374	
805.00000	-0.0375	
805.20000	-0.0375	
805.40000	-0.0375	
805.60000	-0.0374	
805.80000	-0.0369	
806.00000	-0.0372	
806.20000	-0.0369	
806.40000	-0.0369	
806.60000	-0.0372	
806.80000	-0.0368	
807.00000	-0.0369	
807.20000	-0.0369	
807.40000	-0.0368	
807.60000	-0.0368	
807.80000	-0.0368	
808.00000	-0.0366	
808.20000	-0.0368	
808.40000	-0.0366	
808.60000	-0.0369	
808.80000	-0.0369	
809.00000	-0.0368	
809.20000	-0.0368	
809.40000	-0.0372	
809.60000	-0.0369	
809.80000	-0.0369	
810.00000	-0.0368	
810.20000	-0.0368	
810.40000	-0.0363	
810.60000	-0.0365	
810.80000	-0.0363	
811.00000	-0.0365	
811.20000	-0.0365	
811.40000	-0.0363	
811.60000	-0.0366	
811.80000	-0.0366	
812.00000	-0.0372	
812.20000	-0.0369	
812.40000	-0.0377	
812.60000	-0.0375	
812.80000	-0.0374	
813.00000	-0.0375	
813.20000	-0.0377	
813.40000	-0.0375	
813.60000	-0.0378	
813.80000	-0.0381	
814.00000	-0.0381	
814.20000	-0.0380	
814.40000	-0.0377	
814.60000	-0.0378	
814.80000	-0.0377	
815.00000	-0.0378	
815.20000	-0.0378	
815.40000	-0.0377	
815.60000	-0.0377	
815.80000	-0.0377	
816.00000	-0.0372	
816.20000	-0.0374	
816.40000	-0.0369	
816.60000	-0.0369	
816.80000	-0.0369	
817.00000	-0.0372	
817.20000	-0.0369	
817.40000	-0.0369	
817.60000	-0.0366	
817.80000	-0.0372	
818.00000	-0.0368	
818.20000	-0.0365	
818.40000	-0.0365	
818.60000	-0.0368	
818.80000	-0.0368	
819.00000	-0.0366	
819.20000	-0.0366	
819.40000	-0.0363	
819.60000	-0.0362	
819.80000	-0.0365	
820.00000	-0.0365	
820.20000	-0.0368	
820.40000	-0.0368	
820.60000	-0.0368	
820.80000	-0.0368	
821.00000	-0.0369	
821.20000	-0.0366	
821.40000	-0.0366	
821.60000	-0.0368	
821.80000	-0.0366	
822.00000	-0.0368	
822.20000	-0.0366	
822.40000	-0.0362	
822.60000	-0.0363	
822.80000	-0.0362	
823.00000	-0.0362	
823.20000	-0.0362	
823.40000	-0.0360	
823.60000	-0.0362	
823.80000	-0.0363	
824.00000	-0.0362	
824.20000	-0.0362	
824.40000	-0.0362	
824.60000	-0.0365	
824.80000	-0.0365	
825.00000	-0.0363	
825.20000	-0.0362	
825.40000	-0.0365	
825.60000	-0.0362	
825.80000	-0.0362	
826.00000	-0.0365	
826.20000	-0.0365	
826.40000	-0.0365	
826.60000	-0.0368	
826.80000	-0.0362	
827.00000	-0.0366	
827.20000	-0.0362	
827.40000	-0.0363	
827.60000	-0.0360	
827.80000	-0.0362	
828.00000	-0.0363	
828.20000	-0.0363	
828.40000	-0.0363	
828.60000	-0.0366	
828.80000	-0.0366	
829.00000	-0.0372	
829.20000	-0.0369	
829.40000	-0.0372	
829.60000	-0.0375	
829.80000	-0.0375	
830.00000	-0.0374	
830.20000	-0.0375	
830.40000	-0.0375	
830.60000	-0.0375	
830.80000	-0.0372	
831.00000	-0.0372	
831.20000	-0.0368	
831.40000	-0.0369	
831.60000	-0.0372	
831.80000	-0.0368	
832.00000	-0.0366	
832.20000	-0.0368	
832.40000	-0.0368	
832.60000	-0.0368	
832.80000	-0.0368	
833.00000	-0.0368	
833.20000	-0.0369	
833.40000	-0.0368	
833.60000	-0.0368	
833.80000	-0.0368	
834.00000	-0.0366	
834.20000	-0.0368	
834.40000	-0.0366	
834.60000	-0.0365	
834.80000	-0.0363	
835.00000	-0.0365	
835.20000	-0.0365	
835.40000	-0.0368	
835.60000	-0.0366	
835.80000	-0.0365	
836.00000	-0.0366	
836.20000	-0.0368	
836.40000	-0.0365	
836.60000	-0.0366	
836.80000	-0.0368	
837.00000	-0.0366	
837.20000	-0.0369	
837.40000	-0.0366	
837.60000	-0.0369	
837.80000	-0.0366	
838.00000	-0.0366	
838.20000	-0.0368	
838.40000	-0.0368	
838.60000	-0.0369	
838.80000	-0.0368	
839.00000	-0.0365	
839.20000	-0.0366	
839.40000	-0.0368	
839.60000	-0.0366	
839.80000	-0.0365	
840.00000	-0.0363	
840.20000	-0.0366	
840.40000	-0.0365	
840.60000	-0.0363	
840.80000	-0.0366	
841.00000	-0.0363	
841.20000	-0.0365	
841.40000	-0.0365	
841.60000	-0.0366	
841.80000	-0.0365	
842.00000	-0.0365	
842.20000	-0.0365	
842.40000	-0.0365	
842.60000	-0.0372	
842.80000	-0.0368	
843.00000	-0.0368	
843.20000	-0.0366	
843.40000	-0.0368	
843.60000	-0.0366	
843.80000	-0.0365	
844.00000	-0.0365	
844.20000	-0.0366	
844.40000	-0.0366	
844.60000	-0.0369	
844.80000	-0.0368	
845.00000	-0.0368	
845.20000	-0.0368	
845.40000	-0.0372	
845.60000	-0.0374	
845.80000	-0.0372	
846.00000	-0.0372	
846.20000	-0.0372	
846.40000	-0.0372	
846.60000	-0.0369	
846.80000	-0.0369	
847.00000	-0.0372	
847.20000	-0.0368	
847.40000	-0.0366	
847.60000	-0.0368	
847.80000	-0.0368	
848.00000	-0.0368	
848.20000	-0.0366	
848.40000	-0.0369	
848.60000	-0.0365	
848.80000	-0.0366	
849.00000	-0.0366	
849.20000	-0.0365	
849.40000	-0.0362	
849.60000	-0.0365	
849.80000	-0.0365	
850.00000	-0.0365	
850.20000	-0.0363	
850.40000	-0.0365	
850.60000	-0.0363	
850.80000	-0.0363	
851.00000	-0.0362	
851.20000	-0.0363	
851.40000	-0.0368	
851.60000	-0.0365	
851.80000	-0.0366	
852.00000	-0.0365	
852.20000	-0.0366	
852.40000	-0.0366	
852.60000	-0.0365	
852.80000	-0.0365	
853.00000	-0.0365	
853.20000	-0.0365	
853.40000	-0.0366	
853.60000	-0.0366	
853.80000	-0.0369	
854.00000	-0.0368	
854.20000	-0.0369	
854.40000	-0.0368	
854.60000	-0.0369	
854.80000	-0.0366	
855.00000	-0.0372	
855.20000	-0.0374	
855.40000	-0.0372	
855.60000	-0.0372	
855.80000	-0.0369	
856.00000	-0.0369	
856.20000	-0.0368	
856.40000	-0.0366	
856.60000	-0.0369	
856.80000	-0.0368	
857.00000	-0.0369	
857.20000	-0.0369	
857.40000	-0.0368	
857.60000	-0.0366	
857.80000	-0.0368	
858.00000	-0.0365	
858.20000	-0.0365	
858.40000	-0.0366	
858.60000	-0.0363	
858.80000	-0.0366	
859.00000	-0.0366	
859.20000	-0.0368	
859.40000	-0.0365	
859.60000	-0.0368	
859.80000	-0.0368	
860.00000	-0.0366	
860.20000	-0.0365	
860.40000	-0.0363	
860.60000	-0.0359	
860.80000	-0.0362	
861.00000	-0.0365	
861.20000	-0.0362	
861.40000	-0.0366	
861.60000	-0.0368	
861.80000	-0.0365	
862.00000	-0.0368	
862.20000	-0.0366	
862.40000	-0.0366	
862.60000	-0.0363	
862.80000	-0.0366	
863.00000	-0.0369	
863.20000	-0.0368	
863.40000	-0.0366	
863.60000	-0.0369	
863.80000	-0.0366	
864.00000	-0.0366	
864.20000	-0.0366	
864.40000	-0.0366	
864.60000	-0.0368	
864.80000	-0.0368	
865.00000	-0.0369	
865.20000	-0.0368	
865.40000	-0.0366	
865.60000	-0.0369	
865.80000	-0.0368	
866.00000	-0.0369	
866.20000	-0.0368	
866.40000	-0.0372	
866.60000	-0.0369	
866.80000	-0.0372	
867.00000	-0.0366	
867.20000	-0.0372	
867.40000	-0.0368	
867.60000	-0.0368	
867.80000	-0.0372	
868.00000	-0.0372	
868.20000	-0.0374	
868.40000	-0.0372	
868.60000	-0.0374	
868.80000	-0.0374	
869.00000	-0.0375	
869.20000	-0.0374	
869.40000	-0.0374	
869.60000	-0.0372	
869.80000	-0.0372	
870.00000	-0.0374	
870.20000	-0.0372	
870.40000	-0.0375	
870.60000	-0.0375	
870.80000	-0.0377	
871.00000	-0.0378	
871.20000	-0.0375	
871.40000	-0.0374	
871.60000	-0.0375	
871.80000	-0.0377	
872.00000	-0.0374	
872.20000	-0.0377	
872.40000	-0.0374	
872.60000	-0.0374	
872.80000	-0.0374	
873.00000	-0.0375	
873.20000	-0.0372	
873.40000	-0.0372	
873.60000	-0.0372	
873.80000	-0.0372	
874.00000	-0.0372	
874.20000	-0.0372	
874.40000	-0.0372	
874.60000	-0.0372	
874.80000	-0.0372	
875.00000	-0.0374	
875.20000	-0.0374	
875.40000	-0.0374	
875.60000	-0.0372	
875.80000	-0.0374	
876.00000	-0.0377	
876.20000	-0.0375	
876.40000	-0.0375	
876.60000	-0.0375	
876.80000	-0.0374	
877.00000	-0.0374	
877.20000	-0.0369	
877.40000	-0.0369	
877.60000	-0.0372	
877.80000	-0.0375	
878.00000	-0.0375	
878.20000	-0.0378	
878.40000	-0.0377	
878.60000	-0.0381	
878.80000	-0.0380	
879.00000	-0.0377	
879.20000	-0.0377	
879.40000	-0.0375	
879.60000	-0.0374	
879.80000	-0.0377	
880.00000	-0.0375	
880.20000	-0.0375	
880.40000	-0.0374	
880.60000	-0.0374	
880.80000	-0.0374	
881.00000	-0.0369	
881.20000	-0.0369	
881.40000	-0.0374	
881.60000	-0.0372	
881.80000	-0.0372	
882.00000	-0.0369	
882.20000	-0.0372	
882.40000	-0.0369	
882.60000	-0.0374	
882.80000	-0.0375	
883.00000	-0.0375	
883.20000	-0.0374	
883.40000	-0.0375	
883.60000	-0.0375	
883.80000	-0.0375	
884.00000	-0.0374	
884.20000	-0.0374	
884.40000	-0.0375	
884.60000	-0.0374	
884.80000	-0.0374	
885.00000	-0.0374	
885.20000	-0.0374	
885.40000	-0.0375	
885.60000	-0.0377	
885.80000	-0.0375	
886.00000	-0.0375	
886.20000	-0.0377	
886.40000	-0.0374	
886.60000	-0.0377	
886.80000	-0.0375	
887.00000	-0.0377	
887.20000	-0.0378	
887.40000	-0.0380	
887.60000	-0.0375	
887.80000	-0.0380	
888.00000	-0.0377	
888.20000	-0.0377	
888.40000	-0.0380	
888.60000	-0.0380	
888.80000	-0.0380	
889.00000	-0.0375	
889.20000	-0.0375	
889.40000	-0.0377	
889.60000	-0.0372	
889.80000	-0.0372	
890.00000	-0.0369	
890.20000	-0.0372	
890.40000	-0.0369	
890.60000	-0.0369	
890.80000	-0.0369	
891.00000	-0.0369	
891.20000	-0.0369	
891.40000	-0.0369	
891.60000	-0.0366	
891.80000	-0.0368	
892.00000	-0.0369	
892.20000	-0.0366	
892.40000	-0.0368	
892.60000	-0.0369	
892.80000	-0.0375	
893.00000	-0.0372	
893.20000	-0.0369	
893.40000	-0.0372	
893.60000	-0.0368	
893.80000	-0.0368	
894.00000	-0.0365	
894.20000	-0.0365	
894.40000	-0.0368	
894.60000	-0.0369	
894.80000	-0.0366	
895.00000	-0.0369	
895.20000	-0.0366	
895.40000	-0.0366	
895.60000	-0.0363	
895.80000	-0.0363	
896.00000	-0.0362	
896.20000	-0.0362	
896.40000	-0.0365	
896.60000	-0.0365	
896.80000	-0.0365	
897.00000	-0.0366	
897.20000	-0.0368	
897.40000	-0.0365	
897.60000	-0.0365	
897.80000	-0.0368	
898.00000	-0.0365	
898.20000	-0.0368	
898.40000	-0.0368	
898.60000	-0.0369	
898.80000	-0.0368	
899.00000	-0.0369	
899.20000	-0.0368	
899.40000	-0.0369	
899.60000	-0.0372	
899.80000	-0.0375	
900.00000	-0.0375	
900.20000	-0.0375	
900.40000	-0.0375	
900.60000	-0.0377	
900.80000	-0.0374	
901.00000	-0.0375	
901.20000	-0.0380	
901.40000	-0.0378	
901.60000	-0.0375	
901.80000	-0.0377	
902.00000	-0.0377	
902.20000	-0.0375	
902.40000	-0.0377	
902.60000	-0.0378	
902.80000	-0.0377	
903.00000	-0.0374	
903.20000	-0.0375	
903.40000	-0.0375	
903.60000	-0.0375	
903.80000	-0.0380	
904.00000	-0.0380	
904.20000	-0.0377	
904.40000	-0.0377	
904.60000	-0.0377	
904.80000	-0.0378	
905.00000	-0.0380	
905.20000	-0.0380	
905.40000	-0.0378	
905.60000	-0.0375	
905.80000	-0.0375	
906.00000	-0.0375	
906.20000	-0.0372	
906.40000	-0.0377	
906.60000	-0.0374	
906.80000	-0.0372	
907.00000	-0.0372	
907.20000	-0.0369	
907.40000	-0.0369	
907.60000	-0.0374	
907.80000	-0.0372	
908.00000	-0.0369	
908.20000	-0.0368	
908.40000	-0.0368	
908.60000	-0.0368	
908.80000	-0.0368	
909.00000	-0.0372	
909.20000	-0.0375	
909.40000	-0.0375	
909.60000	-0.0372	
909.80000	-0.0372	
910.00000	-0.0372	
910.20000	-0.0374	
910.40000	-0.0368	
910.60000	-0.0365	
910.80000	-0.0365	
911.00000	-0.0365	
911.20000	-0.0368	
911.40000	-0.0374	
911.60000	-0.0369	
911.80000	-0.0366	
912.00000	-0.0369	
912.20000	-0.0368	
912.40000	-0.0369	
912.60000	-0.0368	
912.80000	-0.0369	
913.00000	-0.0372	
913.20000	-0.0368	
913.40000	-0.0369	
913.60000	-0.0369	
913.80000	-0.0375	
914.00000	-0.0375	
914.20000	-0.0375	
914.40000	-0.0374	
914.60000	-0.0375	
914.80000	-0.0375	
915.00000	-0.0375	
915.20000	-0.0374	
915.40000	-0.0375	
915.60000	-0.0378	
915.80000	-0.0374	
916.00000	-0.0380	
916.20000	-0.0378	
916.40000	-0.0375	
916.60000	-0.0378	
916.80000	-0.0378	
917.00000	-0.0378	
917.20000	-0.0377	
917.40000	-0.0378	
917.60000	-0.0381	
917.80000	-0.0381	
918.00000	-0.0381	
918.20000	-0.0383	
918.40000	-0.0380	
918.60000	-0.0385	
918.80000	-0.0383	
919.00000	-0.0385	
919.20000	-0.0381	
919.40000	-0.0380	
919.60000	-0.0380	
919.80000	-0.0381	
920.00000	-0.0381	
920.20000	-0.0385	
920.40000	-0.0383	
920.60000	-0.0385	
920.80000	-0.0388	
921.00000	-0.0386	
921.20000	-0.0381	
921.40000	-0.0385	
921.60000	-0.0385	
921.80000	-0.0386	
922.00000	-0.0383	
922.20000	-0.0380	
922.40000	-0.0378	
922.60000	-0.0378	
922.80000	-0.0378	
923.00000	-0.0380	
923.20000	-0.0380	
923.40000	-0.0378	
923.60000	-0.0377	
923.80000	-0.0377	
924.00000	-0.0378	
924.20000	-0.0378	
924.40000	-0.0381	
924.60000	-0.0378	
924.80000	-0.0377	
925.00000	-0.0380	
925.20000	-0.0377	
925.40000	-0.0377	
925.60000	-0.0377	
925.80000	-0.0381	
926.00000	-0.0383	
926.20000	-0.0381	
926.40000	-0.0385	
926.60000	-0.0380	
926.80000	-0.0378	
927.00000	-0.0377	
927.20000	-0.0375	
927.40000	-0.0374	
927.60000	-0.0374	
927.80000	-0.0374	
928.00000	-0.0381	
928.20000	-0.0372	
928.40000	-0.0374	
928.60000	-0.0374	
928.80000	-0.0374	
929.00000	-0.0368	
929.20000	-0.0374	
929.40000	-0.0374	
929.60000	-0.0372	
929.80000	-0.0374	
930.00000	-0.0374	
930.20000	-0.0369	
930.40000	-0.0374	
930.60000	-0.0372	
930.80000	-0.0372	
931.00000	-0.0372	
931.20000	-0.0368	
931.40000	-0.0375	
931.60000	-0.0375	
931.80000	-0.0374	
932.00000	-0.0374	
932.20000	-0.0377	
932.40000	-0.0375	
932.60000	-0.0378	
932.80000	-0.0377	
933.00000	-0.0380	
933.20000	-0.0378	
933.40000	-0.0377	
933.60000	-0.0378	
933.80000	-0.0378	
934.00000	-0.0378	
934.20000	-0.0380	
934.40000	-0.0385	
934.60000	-0.0383	
934.80000	-0.0383	
935.00000	-0.0386	
935.20000	-0.0385	
935.40000	-0.0385	
935.60000	-0.0385	
935.80000	-0.0385	
936.00000	-0.0386	
936.20000	-0.0386	
936.40000	-0.0385	
936.60000	-0.0381	
936.80000	-0.0386	
937.00000	-0.0386	
937.20000	-0.0385	
937.40000	-0.0383	
937.60000	-0.0385	
937.80000	-0.0381	
938.00000	-0.0381	
938.20000	-0.0381	
938.40000	-0.0386	
938.60000	-0.0381	
938.80000	-0.0378	
939.00000	-0.0380	
939.20000	-0.0377	
939.40000	-0.0374	
939.60000	-0.0372	
939.80000	-0.0375	
940.00000	-0.0375	
940.20000	-0.0375	
940.40000	-0.0374	
940.60000	-0.0374	
940.80000	-0.0372	
941.00000	-0.0375	
941.20000	-0.0375	
941.40000	-0.0375	
941.60000	-0.0372	
941.80000	-0.0375	
942.00000	-0.0368	
942.20000	-0.0372	
942.40000	-0.0375	
942.60000	-0.0374	
942.80000	-0.0377	
943.00000	-0.0377	
943.20000	-0.0377	
943.40000	-0.0375	
943.60000	-0.0374	
943.80000	-0.0374	
944.00000	-0.0372	
944.20000	-0.0372	
944.40000	-0.0372	
944.60000	-0.0372	
944.80000	-0.0375	
945.00000	-0.0375	
945.20000	-0.0374	
945.40000	-0.0369	
945.60000	-0.0372	
945.80000	-0.0369	
946.00000	-0.0375	
946.20000	-0.0372	
946.40000	-0.0375	
946.60000	-0.0374	
946.80000	-0.0374	
947.00000	-0.0375	
947.20000	-0.0375	
947.40000	-0.0375	
947.60000	-0.0375	
947.80000	-0.0372	
948.00000	-0.0374	
948.20000	-0.0374	
948.40000	-0.0375	
948.60000	-0.0375	
948.80000	-0.0375	
949.00000	-0.0375	
949.20000	-0.0378	
949.40000	-0.0374	
949.60000	-0.0377	
949.80000	-0.0380	
950.00000	-0.0380	
950.20000	-0.0385	
950.40000	-0.0378	
950.60000	-0.0381	
950.80000	-0.0378	
951.00000	-0.0375	
951.20000	-0.0380	
951.40000	-0.0380	
951.60000	-0.0377	
951.80000	-0.0378	
952.00000	-0.0381	
952.20000	-0.0380	
952.40000	-0.0381	
952.60000	-0.0378	
952.80000	-0.0380	
953.00000	-0.0375	
953.20000	-0.0375	
953.40000	-0.0378	
953.60000	-0.0380	
953.80000	-0.0378	
954.00000	-0.0380	
954.20000	-0.0380	
954.40000	-0.0381	
954.60000	-0.0380	
954.80000	-0.0378	
955.00000	-0.0383	
955.20000	-0.0383	
955.40000	-0.0380	
955.60000	-0.0380	
955.80000	-0.0375	
956.00000	-0.0378	
956.20000	-0.0375	
956.40000	-0.0375	
956.60000	-0.0375	
956.80000	-0.0375	
957.00000	-0.0375	
957.20000	-0.0374	
957.40000	-0.0374	
957.60000	-0.0372	
957.80000	-0.0375	
958.00000	-0.0377	
958.20000	-0.0375	
958.40000	-0.0380	
958.60000	-0.0375	
958.80000	-0.0375	
959.00000	-0.0377	
959.20000	-0.0375	
959.40000	-0.0375	
959.60000	-0.0374	
959.80000	-0.0375	
960.00000	-0.0377	
960.20000	-0.0374	
960.40000	-0.0377	
960.60000	-0.0372	
960.80000	-0.0372	
961.00000	-0.0374	
961.20000	-0.0374	
961.40000	-0.0378	
961.60000	-0.0374	
961.80000	-0.0375	
962.00000	-0.0374	
962.20000	-0.0372	
962.40000	-0.0372	
962.60000	-0.0372	
962.80000	-0.0372	
963.00000	-0.0372	
963.20000	-0.0374	
963.40000	-0.0372	
963.60000	-0.0375	
963.80000	-0.0374	
964.00000	-0.0374	
964.20000	-0.0374	
964.40000	-0.0374	
964.60000	-0.0374	
964.80000	-0.0374	
965.00000	-0.0372	
965.20000	-0.0369	
965.40000	-0.0372	
965.60000	-0.0374	
965.80000	-0.0375	
966.00000	-0.0377	
966.20000	-0.0375	
966.40000	-0.0378	
966.60000	-0.0378	
966.80000	-0.0383	
967.00000	-0.0380	
967.20000	-0.0381	
967.40000	-0.0380	
967.60000	-0.0380	
967.80000	-0.0380	
968.00000	-0.0377	
968.20000	-0.0381	
968.40000	-0.0380	
968.60000	-0.0383	
968.80000	-0.0383	
969.00000	-0.0383	
969.20000	-0.0385	
969.40000	-0.0381	
969.60000	-0.0381	
969.80000	-0.0381	
970.00000	-0.0380	
970.20000	-0.0383	
970.40000	-0.0383	
970.60000	-0.0385	
970.80000	-0.0385	
971.00000	-0.0383	
971.20000	-0.0381	
971.40000	-0.0385	
971.60000	-0.0388	
971.80000	-0.0388	
972.00000	-0.0388	
972.20000	-0.0386	
972.40000	-0.0385	
972.60000	-0.0380	
972.80000	-0.0381	
973.00000	-0.0381	
973.20000	-0.0381	
973.40000	-0.0380	
973.60000	-0.0380	
973.80000	-0.0378	
974.00000	-0.0377	
974.20000	-0.0381	
974.40000	-0.0381	
974.60000	-0.0378	
974.80000	-0.0381	
975.00000	-0.0381	
975.20000	-0.0380	
975.40000	-0.0375	
975.60000	-0.0378	
975.80000	-0.0381	
976.00000	-0.0380	
976.20000	-0.0378	
976.40000	-0.0381	
976.60000	-0.0377	
976.80000	-0.0378	
977.00000	-0.0378	
977.20000	-0.0372	
977.40000	-0.0374	
977.60000	-0.0374	
977.80000	-0.0374	
978.00000	-0.0380	
978.20000	-0.0378	
978.40000	-0.0378	
978.60000	-0.0381	
978.80000	-0.0386	
979.00000	-0.0385	
979.20000	-0.0378	
979.40000	-0.0378	
979.60000	-0.0381	
979.80000	-0.0383	
980.00000	-0.0380	
980.20000	-0.0383	
980.40000	-0.0383	
980.60000	-0.0383	
980.80000	-0.0383	
981.00000	-0.0383	
981.20000	-0.0381	
981.40000	-0.0380	
981.60000	-0.0380	
981.80000	-0.0381	
982.00000	-0.0381	
982.20000	-0.0381	
982.40000	-0.0381	
982.60000	-0.0381	
982.80000	-0.0385	
983.00000	-0.0383	
983.20000	-0.0386	
983.40000	-0.0386	
983.60000	-0.0386	
983.80000	-0.0386	
984.00000	-0.0386	
984.20000	-0.0386	
984.40000	-0.0388	
984.60000	-0.0386	
984.80000	-0.0388	
985.00000	-0.0388	
985.20000	-0.0388	
985.40000	-0.0386	
985.60000	-0.0388	
985.80000	-0.0386	
986.00000	-0.0388	
986.20000	-0.0386	
986.40000	-0.0385	
986.60000	-0.0386	
986.80000	-0.0389	
987.00000	-0.0386	
987.20000	-0.0389	
987.40000	-0.0389	
987.60000	-0.0385	
987.80000	-0.0388	
988.00000	-0.0386	
988.20000	-0.0386	
988.40000	-0.0386	
988.60000	-0.0386	
988.80000	-0.0386	
989.00000	-0.0383	
989.20000	-0.0385	
989.40000	-0.0383	
989.60000	-0.0381	
989.80000	-0.0383	
990.00000	-0.0385	
990.20000	-0.0385	
990.40000	-0.0386	
990.60000	-0.0385	
990.80000	-0.0383	
991.00000	-0.0386	
991.20000	-0.0383	
991.40000	-0.0383	
991.60000	-0.0385	
991.80000	-0.0383	
992.00000	-0.0385	
992.20000	-0.0385	
992.40000	-0.0386	
992.60000	-0.0388	
992.80000	-0.0389	
993.00000	-0.0385	
993.20000	-0.0388	
993.40000	-0.0388	
993.60000	-0.0389	
993.80000	-0.0386	
994.00000	-0.0385	
994.20000	-0.0385	
994.40000	-0.0383	
994.60000	-0.0385	
994.80000	-0.0389	
995.00000	-0.0388	
995.20000	-0.0389	
995.40000	-0.0388	
995.60000	-0.0389	
995.80000	-0.0385	
996.00000	-0.0389	
996.20000	-0.0389	
996.40000	-0.0391	
996.60000	-0.0391	
996.80000	-0.0389	
997.00000	-0.0391	
997.20000	-0.0389	
997.40000	-0.0388	
997.60000	-0.0389	
997.80000	-0.0388	
998.00000	-0.0389	
998.20000	-0.0389	
998.40000	-0.0385	
998.60000	-0.0386	
998.80000	-0.0386	
999.00000	-0.0389	
999.20000	-0.0389	
999.40000	-0.0388	
999.60000	-0.0389	
999.80000	-0.0386	
1000.00000	-0.0388	
1000.20000	-0.0389	
1000.40000	-0.0391	
1000.60000	-0.0388	
1000.80000	-0.0386	
1001.00000	-0.0388	
1001.20000	-0.0388	
1001.40000	-0.0389	
1001.60000	-0.0391	
1001.80000	-0.0391	
1002.00000	-0.0394	
1002.20000	-0.0391	
1002.40000	-0.0391	
1002.60000	-0.0391	
1002.80000	-0.0389	
1003.00000	-0.0389	
1003.20000	-0.0386	
1003.40000	-0.0389	
1003.60000	-0.0388	
1003.80000	-0.0388	
1004.00000	-0.0389	
1004.20000	-0.0391	
1004.40000	-0.0391	
1004.60000	-0.0395	
1004.80000	-0.0395	
1005.00000	-0.0397	
1005.20000	-0.0400	
1005.40000	-0.0398	
1005.60000	-0.0395	
1005.80000	-0.0394	
1006.00000	-0.0389	
1006.20000	-0.0391	
1006.40000	-0.0391	
1006.60000	-0.0388	
1006.80000	-0.0389	
1007.00000	-0.0389	
1007.20000	-0.0388	
1007.40000	-0.0389	
1007.60000	-0.0386	
1007.80000	-0.0388	
1008.00000	-0.0388	
1008.20000	-0.0388	
1008.40000	-0.0386	
1008.60000	-0.0388	
1008.80000	-0.0388	
1009.00000	-0.0388	
1009.20000	-0.0388	
1009.40000	-0.0389	
1009.60000	-0.0388	
1009.80000	-0.0388	
1010.00000	-0.0391	
1010.20000	-0.0386	
1010.40000	-0.0385	
1010.60000	-0.0385	
1010.80000	-0.0386	
1011.00000	-0.0383	
1011.20000	-0.0386	
1011.40000	-0.0383	
1011.60000	-0.0388	
1011.80000	-0.0386	
1012.00000	-0.0388	
1012.20000	-0.0388	
1012.40000	-0.0386	
1012.60000	-0.0383	
1012.80000	-0.0385	
1013.00000	-0.0385	
1013.20000	-0.0388	
1013.40000	-0.0389	
1013.60000	-0.0391	
1013.80000	-0.0391	
1014.00000	-0.0389	
1014.20000	-0.0388	
1014.40000	-0.0386	
1014.60000	-0.0388	
1014.80000	-0.0386	
1015.00000	-0.0385	
1015.20000	-0.0385	
1015.40000	-0.0386	
1015.60000	-0.0388	
1015.80000	-0.0383	
1016.00000	-0.0385	
1016.20000	-0.0388	
1016.40000	-0.0386	
1016.60000	-0.0385	
1016.80000	-0.0386	
1017.00000	-0.0386	
1017.20000	-0.0388	
1017.40000	-0.0389	
1017.60000	-0.0386	
1017.80000	-0.0388	
1018.00000	-0.0388	
1018.20000	-0.0388	
1018.40000	-0.0386	
1018.60000	-0.0386	
1018.80000	-0.0386	
1019.00000	-0.0388	
1019.20000	-0.0386	
1019.40000	-0.0385	
1019.60000	-0.0385	
1019.80000	-0.0383	
1020.00000	-0.0389	
1020.20000	-0.0391	
1020.40000	-0.0391	
1020.60000	-0.0391	
1020.80000	-0.0394	
1021.00000	-0.0391	
1021.20000	-0.0389	
1021.40000	-0.0388	
1021.60000	-0.0391	
1021.80000	-0.0395	
1022.00000	-0.0391	
1022.20000	-0.0389	
1022.40000	-0.0388	
1022.60000	-0.0388	
1022.80000	-0.0388	
1023.00000	-0.0388	
1023.20000	-0.0388	
1023.40000	-0.0388	
1023.60000	-0.0385	
1023.80000	-0.0386	
1024.00000	-0.0385	
1024.20000	-0.0386	
1024.40000	-0.0383	
1024.60000	-0.0385	
1024.80000	-0.0386	
1025.00000	-0.0385	
1025.20000	-0.0381	
1025.40000	-0.0386	
1025.60000	-0.0385	
1025.80000	-0.0385	
1026.00000	-0.0385	
1026.20000	-0.0388	
1026.40000	-0.0389	
1026.60000	-0.0389	
1026.80000	-0.0386	
1027.00000	-0.0386	
1027.20000	-0.0386	
1027.40000	-0.0385	
1027.60000	-0.0388	
1027.80000	-0.0389	
1028.00000	-0.0389	
1028.20000	-0.0395	
1028.40000	-0.0395	
1028.60000	-0.0395	
1028.80000	-0.0395	
1029.00000	-0.0394	
1029.20000	-0.0391	
1029.40000	-0.0389	
1029.60000	-0.0388	
1029.80000	-0.0394	
1030.00000	-0.0395	
1030.20000	-0.0395	
1030.40000	-0.0395	
1030.60000	-0.0395	
1030.80000	-0.0394	
1031.00000	-0.0391	
1031.20000	-0.0391	
1031.40000	-0.0394	
1031.60000	-0.0389	
1031.80000	-0.0391	
1032.00000	-0.0388	
1032.20000	-0.0386	
1032.40000	-0.0391	
1032.60000	-0.0386	
1032.80000	-0.0385	
1033.00000	-0.0385	
1033.20000	-0.0386	
1033.40000	-0.0383	
1033.60000	-0.0381	
1033.80000	-0.0380	
1034.00000	-0.0380	
1034.20000	-0.0375	
1034.40000	-0.0377	
1034.60000	-0.0378	
1034.80000	-0.0374	
1035.00000	-0.0372	
1035.20000	-0.0372	
1035.40000	-0.0368	
1035.60000	-0.0368	
1035.80000	-0.0363	
1036.00000	-0.0362	
1036.20000	-0.0360	
1036.40000	-0.0357	
1036.60000	-0.0356	
1036.80000	-0.0354	
1037.00000	-0.0348	
1037.20000	-0.0345	
1037.40000	-0.0342	
1037.60000	-0.0336	
1037.80000	-0.0328	
1038.00000	-0.0319	
1038.20000	-0.0314	
1038.40000	-0.0307	
1038.60000	-0.0301	
1038.80000	-0.0288	
1039.00000	-0.0281	
1039.20000	-0.0272	
1039.40000	-0.0262	
1039.60000	-0.0253	
1039.80000	-0.0246	
1040.00000	-0.0237	
1040.20000	-0.0229	
1040.40000	-0.0221	
1040.60000	-0.0214	
1040.80000	-0.0206	
1041.00000	-0.0203	
1041.20000	-0.0194	
1041.40000	-0.0189	
1041.60000	-0.0185	
1041.80000	-0.0182	
1042.00000	-0.0182	
1042.20000	-0.0175	
1042.40000	-0.0179	
1042.60000	-0.0175	
1042.80000	-0.0175	
1043.00000	-0.0174	
1043.20000	-0.0168	
1043.40000	-0.0165	
1043.60000	-0.0160	
1043.80000	-0.0151	
1044.00000	-0.0140	
1044.20000	-0.0137	
1044.40000	-0.0127	
1044.60000	-0.0122	
1044.80000	-0.0113	
1045.00000	-0.0110	
1045.20000	-0.0101	
1045.40000	-0.0092	
1045.60000	-0.0084	
1045.80000	-0.0076	
1046.00000	-0.0063	
1046.20000	-0.0052	
1046.40000	-0.0043	
1046.60000	-0.0031	
1046.80000	-0.0015	
1047.00000	 0.0000	
1047.20000	 0.0020	
1047.40000	 0.0044	
1047.60000	 0.0078	
1047.80000	 0.0119	
1048.00000	 0.0165	
1048.20000	 0.0218	
1048.40000	 0.0287	
1048.60000	 0.0366	
1048.80000	 0.0456	
1049.00000	 0.0549	
1049.20000	 0.0656	
1049.40000	 0.0763	
1049.60000	 0.0874	
1049.80000	 0.0993	
1050.00000	 0.1109	
1050.20000	 0.1231	
1050.40000	 0.1349	
1050.60000	 0.1463	
1050.80000	 0.1575	
1051.00000	 0.1672	
1051.20000	 0.1767	
1051.40000	 0.1852	
1051.60000	 0.1927	
1051.80000	 0.1993	
1052.00000	 0.2051	
1052.20000	 0.2098	
1052.40000	 0.2136	
1052.60000	 0.2167	
1052.80000	 0.2184	
1053.00000	 0.2191	
1053.20000	 0.2191	
1053.40000	 0.2177	
1053.60000	 0.2156	
1053.80000	 0.2127	
1054.00000	 0.2090	
1054.20000	 0.2043	
1054.40000	 0.1996	
1054.60000	 0.1941	
1054.80000	 0.1880	
1055.00000	 0.1810	
1055.20000	 0.1740	
1055.40000	 0.1666	
1055.60000	 0.1590	
1055.80000	 0.1511	
1056.00000	 0.1431	
1056.20000	 0.1349	
1056.40000	 0.1271	
1056.60000	 0.1187	
1056.80000	 0.1115	
1057.00000	 0.1041	
1057.20000	 0.0966	
1057.40000	 0.0897	
1057.60000	 0.0838	
1057.80000	 0.0771	
1058.00000	 0.0710	
1058.20000	 0.0658	
1058.40000	 0.0601	
1058.60000	 0.0551	
1058.80000	 0.0502	
1059.00000	 0.0461	
1059.20000	 0.0418	
1059.40000	 0.0383	
1059.60000	 0.0352	
1059.80000	 0.0328	
1060.00000	 0.0301	
1060.20000	 0.0281	
1060.40000	 0.0267	
1060.60000	 0.0255	
1060.80000	 0.0244	
1061.00000	 0.0235	
1061.20000	 0.0229	
1061.40000	 0.0232	
1061.60000	 0.0230	
1061.80000	 0.0235	
1062.00000	 0.0237	
1062.20000	 0.0249	
1062.40000	 0.0266	
1062.60000	 0.0278	
1062.80000	 0.0294	
1063.00000	 0.0313	
1063.20000	 0.0331	
1063.40000	 0.0349	
1063.60000	 0.0366	
1063.80000	 0.0383	
1064.00000	 0.0403	
1064.20000	 0.0414	
1064.40000	 0.0436	
1064.60000	 0.0450	
1064.80000	 0.0464	
1065.00000	 0.0479	
1065.20000	 0.0493	
1065.40000	 0.0507	
1065.60000	 0.0523	
1065.80000	 0.0534	
1066.00000	 0.0551	
1066.20000	 0.0566	
1066.40000	 0.0584	
1066.60000	 0.0597	
1066.80000	 0.0613	
1067.00000	 0.0633	
1067.20000	 0.0647	
1067.40000	 0.0662	
1067.60000	 0.0676	
1067.80000	 0.0688	
1068.00000	 0.0699	
1068.20000	 0.0705	
1068.40000	 0.0714	
1068.60000	 0.0719	
1068.80000	 0.0726	
1069.00000	 0.0732	
1069.20000	 0.0735	
1069.40000	 0.0740	
1069.60000	 0.0745	
1069.80000	 0.0746	
1070.00000	 0.0743	
1070.20000	 0.0739	
1070.40000	 0.0732	
1070.60000	 0.0723	
1070.80000	 0.0711	
1071.00000	 0.0696	
1071.20000	 0.0677	
1071.40000	 0.0659	
1071.60000	 0.0626	
1071.80000	 0.0594	
1072.00000	 0.0562	
1072.20000	 0.0525	
1072.40000	 0.0487	
1072.60000	 0.0446	
1072.80000	 0.0400	
1073.00000	 0.0357	
1073.20000	 0.0317	
1073.40000	 0.0273	
1073.60000	 0.0229	
1073.80000	 0.0186	
1074.00000	 0.0145	
1074.20000	 0.0107	
1074.40000	 0.0066	
1074.60000	 0.0032	
1074.80000	-0.0005	
1075.00000	-0.0040	
1075.20000	-0.0076	
1075.40000	-0.0111	
1075.60000	-0.0143	
1075.80000	-0.0179	
1076.00000	-0.0209	
1076.20000	-0.0237	
1076.40000	-0.0267	
1076.60000	-0.0294	
1076.80000	-0.0320	
1077.00000	-0.0340	
1077.20000	-0.0360	
1077.40000	-0.0377	
1077.60000	-0.0397	
1077.80000	-0.0409	
1078.00000	-0.0426	
1078.20000	-0.0439	
1078.40000	-0.0447	
1078.60000	-0.0461	
1078.80000	-0.0470	
1079.00000	-0.0468	
1079.20000	-0.0468	
1079.40000	-0.0465	
1079.60000	-0.0467	
1079.80000	-0.0470	
1080.00000	-0.0470	
1080.20000	-0.0473	
1080.40000	-0.0475	
1080.60000	-0.0475	
1080.80000	-0.0473	
1081.00000	-0.0479	
1081.20000	-0.0482	
1081.40000	-0.0487	
1081.60000	-0.0490	
1081.80000	-0.0496	
1082.00000	-0.0494	
1082.20000	-0.0505	
1082.40000	-0.0511	
1082.60000	-0.0517	
1082.80000	-0.0526	
1083.00000	-0.0534	
1083.20000	-0.0545	
1083.40000	-0.0554	
1083.60000	-0.0566	
1083.80000	-0.0577	
1084.00000	-0.0594	
1084.20000	-0.0610	
1084.40000	-0.0624	
1084.60000	-0.0639	
1084.80000	-0.0661	
1085.00000	-0.0677	
1085.20000	-0.0694	
1085.40000	-0.0708	
1085.60000	-0.0723	
1085.80000	-0.0742	
1086.00000	-0.0752	
1086.20000	-0.0769	
1086.40000	-0.0783	
1086.60000	-0.0797	
1086.80000	-0.0809	
1087.00000	-0.0822	
1087.20000	-0.0836	
1087.40000	-0.0848	
1087.60000	-0.0858	
1087.80000	-0.0868	
1088.00000	-0.0876	
1088.20000	-0.0885	
1088.40000	-0.0896	
1088.60000	-0.0900	
1088.80000	-0.0906	
1089.00000	-0.0911	
1089.20000	-0.0914	
1089.40000	-0.0920	
1089.60000	-0.0929	
1089.80000	-0.0934	
1090.00000	-0.0937	
1090.20000	-0.0941	
1090.40000	-0.0949	
1090.60000	-0.0957	
1090.80000	-0.0958	
1091.00000	-0.0970	
1091.20000	-0.0974	
1091.40000	-0.0978	
1091.60000	-0.0983	
1091.80000	-0.0990	
1092.00000	-0.0992	
1092.20000	-0.0996	
1092.40000	-0.1003	
1092.60000	-0.1006	
1092.80000	-0.1009	
1093.00000	-0.1010	
1093.20000	-0.1012	
1093.40000	-0.1013	
1093.60000	-0.1015	
1093.80000	-0.1012	
1094.00000	-0.1012	
1094.20000	-0.1012	
1094.40000	-0.1012	
1094.60000	-0.1013	
1094.80000	-0.1018	
1095.00000	-0.1015	
1095.20000	-0.1015	
1095.40000	-0.1013	
1095.60000	-0.1012	
1095.80000	-0.1013	
1096.00000	-0.1015	
1096.20000	-0.1018	
1096.40000	-0.1018	
1096.60000	-0.1022	
1096.80000	-0.1021	
1097.00000	-0.1025	
1097.20000	-0.1025	
1097.40000	-0.1025	
1097.60000	-0.1030	
1097.80000	-0.1030	
1098.00000	-0.1031	
1098.20000	-0.1030	
1098.40000	-0.1033	
1098.60000	-0.1033	
1098.80000	-0.1031	
1099.00000	-0.1030	
1099.20000	-0.1027	
1099.40000	-0.1025	
1099.60000	-0.1019	
1099.80000	-0.1018	
1100.00000	-0.1018	
1100.20000	-0.1016	
1100.40000	-0.1012	
1100.60000	-0.1010	
1100.80000	-0.1003	
1101.00000	-0.0996	
1101.20000	-0.0996	
1101.40000	-0.0989	
1101.60000	-0.0983	
1101.80000	-0.0978	
1102.00000	-0.0974	
1102.20000	-0.0969	
1102.40000	-0.0967	
1102.60000	-0.0961	
1102.80000	-0.0955	
1103.00000	-0.0949	
1103.20000	-0.0943	
1103.40000	-0.0941	
1103.60000	-0.0937	
1103.80000	-0.0935	
1104.00000	-0.0929	
1104.20000	-0.0926	
1104.40000	-0.0919	
1104.60000	-0.0916	
1104.80000	-0.0912	
1105.00000	-0.0909	
1105.20000	-0.0908	
1105.40000	-0.0905	
1105.60000	-0.0900	
1105.80000	-0.0897	
1106.00000	-0.0896	
1106.20000	-0.0893	
1106.40000	-0.0890	
1106.60000	-0.0891	
1106.80000	-0.0888	
1107.00000	-0.0882	
1107.20000	-0.0887	
1107.40000	-0.0885	
1107.60000	-0.0883	
1107.80000	-0.0885	
1108.00000	-0.0885	
1108.20000	-0.0887	
1108.40000	-0.0888	
1108.60000	-0.0890	
1108.80000	-0.0891	
1109.00000	-0.0897	
1109.20000	-0.0899	
1109.40000	-0.0906	
1109.60000	-0.0905	
1109.80000	-0.0911	
1110.00000	-0.0914	
1110.20000	-0.0916	
1110.40000	-0.0914	
1110.60000	-0.0916	
1110.80000	-0.0917	
1111.00000	-0.0920	
1111.20000	-0.0925	
1111.40000	-0.0931	
1111.60000	-0.0931	
1111.80000	-0.0934	
1112.00000	-0.0932	
1112.20000	-0.0935	
1112.40000	-0.0940	
1112.60000	-0.0943	
1112.80000	-0.0946	
1113.00000	-0.0951	
1113.20000	-0.0955	
1113.40000	-0.0955	
1113.60000	-0.0961	
1113.80000	-0.0967	
1114.00000	-0.0972	
1114.20000	-0.0975	
1114.40000	-0.0977	
1114.60000	-0.0978	
1114.80000	-0.0983	
1115.00000	-0.0989	
1115.20000	-0.0989	
1115.40000	-0.0995	
1115.60000	-0.0995	
1115.80000	-0.0998	
1116.00000	-0.1003	
1116.20000	-0.1006	
1116.40000	-0.1012	
1116.60000	-0.1012	
1116.80000	-0.1015	
1117.00000	-0.1018	
1117.20000	-0.1025	
1117.40000	-0.1027	
1117.60000	-0.1033	
1117.80000	-0.1038	
1118.00000	-0.1042	
1118.20000	-0.1045	
1118.40000	-0.1051	
1118.60000	-0.1054	
1118.80000	-0.1057	
1119.00000	-0.1059	
1119.20000	-0.1062	
1119.40000	-0.1064	
1119.60000	-0.1067	
1119.80000	-0.1068	
1120.00000	-0.1073	
1120.20000	-0.1073	
1120.40000	-0.1076	
1120.60000	-0.1074	
1120.80000	-0.1076	
1121.00000	-0.1077	
1121.20000	-0.1073	
1121.40000	-0.1070	
1121.60000	-0.1074	
1121.80000	-0.1074	
1122.00000	-0.1074	
1122.20000	-0.1070	
1122.40000	-0.1067	
1122.60000	-0.1067	
1122.80000	-0.1073	
1123.00000	-0.1068	
1123.20000	-0.1065	
1123.40000	-0.1068	
1123.60000	-0.1067	
1123.80000	-0.1073	
1124.00000	-0.1070	
1124.20000	-0.1079	
1124.40000	-0.1082	
1124.60000	-0.1082	
1124.80000	-0.1080	
1125.00000	-0.1083	
1125.20000	-0.1088	
1125.40000	-0.1086	
1125.60000	-0.1091	
1125.80000	-0.1096	
1126.00000	-0.1099	
1126.20000	-0.1102	
1126.40000	-0.1100	
1126.60000	-0.1099	
1126.80000	-0.1100	
1127.00000	-0.1102	
1127.20000	-0.1096	
1127.40000	-0.1091	
1127.60000	-0.1091	
1127.80000	-0.1096	
1128.00000	-0.1096	
1128.20000	-0.1099	
1128.40000	-0.1097	
1128.60000	-0.1097	
1128.80000	-0.1099	
1129.00000	-0.1097	
1129.20000	-0.1096	
1129.40000	-0.1091	
1129.60000	-0.1089	
1129.80000	-0.1089	
1130.00000	-0.1088	
1130.20000	-0.1085	
1130.40000	-0.1083	
1130.60000	-0.1082	
1130.80000	-0.1080	
1131.00000	-0.1079	
1131.20000	-0.1074	
1131.40000	-0.1070	
1131.60000	-0.1073	
1131.80000	-0.1065	
1132.00000	-0.1064	
1132.20000	-0.1065	
1132.40000	-0.1064	
1132.60000	-0.1057	
1132.80000	-0.1059	
1133.00000	-0.1053	
1133.20000	-0.1051	
1133.40000	-0.1047	
1133.60000	-0.1045	
1133.80000	-0.1039	
1134.00000	-0.1039	
1134.20000	-0.1033	
1134.40000	-0.1030	
1134.60000	-0.1030	
1134.80000	-0.1024	
1135.00000	-0.1022	
1135.20000	-0.1019	
1135.40000	-0.1016	
1135.60000	-0.1010	
1135.80000	-0.1010	
1136.00000	-0.1004	
1136.20000	-0.0998	
1136.40000	-0.0992	
1136.60000	-0.0989	
1136.80000	-0.0984	
1137.00000	-0.0980	
1137.20000	-0.0977	
1137.40000	-0.0974	
1137.60000	-0.0967	
1137.80000	-0.0963	
1138.00000	-0.0958	
1138.20000	-0.0952	
1138.40000	-0.0951	
1138.60000	-0.0948	
1138.80000	-0.0943	
1139.00000	-0.0937	
1139.20000	-0.0932	
1139.40000	-0.0928	
1139.60000	-0.0929	
1139.80000	-0.0925	
1140.00000	-0.0922	
1140.20000	-0.0916	
1140.40000	-0.0911	
1140.60000	-0.0908	
1140.80000	-0.0905	
1141.00000	-0.0900	
1141.20000	-0.0897	
1141.40000	-0.0896	
1141.60000	-0.0888	
1141.80000	-0.0887	
1142.00000	-0.0882	
1142.20000	-0.0874	
1142.40000	-0.0873	
1142.60000	-0.0868	
1142.80000	-0.0864	
1143.00000	-0.0856	
1143.20000	-0.0851	
1143.40000	-0.0845	
1143.60000	-0.0839	
1143.80000	-0.0833	
1144.00000	-0.0826	
1144.20000	-0.0818	
1144.40000	-0.0819	
1144.60000	-0.0810	
1144.80000	-0.0804	
1145.00000	-0.0803	
1145.20000	-0.0797	
1145.40000	-0.0797	
1145.60000	-0.0786	
1145.80000	-0.0781	
1146.00000	-0.0777	
1146.20000	-0.0769	
1146.40000	-0.0766	
1146.60000	-0.0760	
1146.80000	-0.0757	
1147.00000	-0.0751	
1147.20000	-0.0748	
1147.40000	-0.0742	
1147.60000	-0.0737	
1147.80000	-0.0728	
1148.00000	-0.0725	
1148.20000	-0.0720	
1148.40000	-0.0714	
1148.60000	-0.0713	
1148.80000	-0.0705	
1149.00000	-0.0703	
1149.20000	-0.0696	
1149.40000	-0.0687	
1149.60000	-0.0685	
1149.80000	-0.0684	
1150.00000	-0.0677	
1150.20000	-0.0673	
1150.40000	-0.0671	
1150.60000	-0.0665	
1150.80000	-0.0658	
1151.00000	-0.0656	
1151.20000	-0.0655	
1151.40000	-0.0648	
1151.60000	-0.0641	
1151.80000	-0.0638	
1152.00000	-0.0635	
1152.20000	-0.0630	
1152.40000	-0.0629	
1152.60000	-0.0623	
1152.80000	-0.0620	
1153.00000	-0.0613	
1153.20000	-0.0610	
1153.40000	-0.0609	
1153.60000	-0.0606	
1153.80000	-0.0603	
1154.00000	-0.0595	
1154.20000	-0.0592	
1154.40000	-0.0589	
1154.60000	-0.0584	
1154.80000	-0.0578	
1155.00000	-0.0575	
1155.20000	-0.0572	
1155.40000	-0.0569	
1155.60000	-0.0565	
1155.80000	-0.0558	
1156.00000	-0.0555	
1156.20000	-0.0552	
1156.40000	-0.0549	
1156.60000	-0.0545	
1156.80000	-0.0539	
1157.00000	-0.0536	
1157.20000	-0.0531	
1157.40000	-0.0526	
1157.60000	-0.0523	
1157.80000	-0.0522	
1158.00000	-0.0519	
1158.20000	-0.0516	
1158.40000	-0.0516	
1158.60000	-0.0508	
1158.80000	-0.0508	
1159.00000	-0.0505	
1159.20000	-0.0504	
1159.40000	-0.0500	
1159.60000	-0.0493	
1159.80000	-0.0491	
1160.00000	-0.0487	
1160.20000	-0.0482	
1160.40000	-0.0476	
1160.60000	-0.0470	
1160.80000	-0.0464	
1161.00000	-0.0461	
1161.20000	-0.0453	
1161.40000	-0.0450	
1161.60000	-0.0450	
1161.80000	-0.0447	
1162.00000	-0.0441	
1162.20000	-0.0436	
1162.40000	-0.0427	
1162.60000	-0.0421	
1162.80000	-0.0421	
1163.00000	-0.0417	
1163.20000	-0.0409	
1163.40000	-0.0407	
1163.60000	-0.0403	
1163.80000	-0.0400	
1164.00000	-0.0397	
1164.20000	-0.0400	
1164.40000	-0.0388	
1164.60000	-0.0389	
1164.80000	-0.0388	
1165.00000	-0.0388	
1165.20000	-0.0386	
1165.40000	-0.0385	
1165.60000	-0.0385	
1165.80000	-0.0385	
1166.00000	-0.0385	
1166.20000	-0.0381	
1166.40000	-0.0383	
1166.60000	-0.0383	
1166.80000	-0.0385	
1167.00000	-0.0383	
1167.20000	-0.0385	
1167.40000	-0.0385	
1167.60000	-0.0383	
1167.80000	-0.0386	
1168.00000	-0.0386	
1168.20000	-0.0388	
1168.40000	-0.0386	
1168.60000	-0.0388	
1168.80000	-0.0388	
1169.00000	-0.0389	
1169.20000	-0.0388	
1169.40000	-0.0391	
1169.60000	-0.0389	
1169.80000	-0.0386	
1170.00000	-0.0389	
1170.20000	-0.0389	
1170.40000	-0.0389	
1170.60000	-0.0391	
1170.80000	-0.0394	
1171.00000	-0.0391	
1171.20000	-0.0389	
1171.40000	-0.0388	
1171.60000	-0.0388	
1171.80000	-0.0389	
1172.00000	-0.0388	
1172.20000	-0.0385	
1172.40000	-0.0381	
1172.60000	-0.0381	
1172.80000	-0.0381	
1173.00000	-0.0380	
1173.20000	-0.0377	
1173.40000	-0.0375	
1173.60000	-0.0378	
1173.80000	-0.0377	
1174.00000	-0.0380	
1174.20000	-0.0377	
1174.40000	-0.0380	
1174.60000	-0.0381	
1174.80000	-0.0380	
1175.00000	-0.0377	
1175.20000	-0.0380	
1175.40000	-0.0380	
1175.60000	-0.0375	
1175.80000	-0.0378	
1176.00000	-0.0375	
1176.20000	-0.0372	
1176.40000	-0.0374	
1176.60000	-0.0369	
1176.80000	-0.0368	
1177.00000	-0.0363	
1177.20000	-0.0362	
1177.40000	-0.0357	
1177.60000	-0.0348	
1177.80000	-0.0354	
1178.00000	-0.0352	
1178.20000	-0.0348	
1178.40000	-0.0348	
1178.60000	-0.0349	
1178.80000	-0.0349	
1179.00000	-0.0349	
1179.20000	-0.0348	
1179.40000	-0.0348	
1179.60000	-0.0348	
1179.80000	-0.0348	
1180.00000	-0.0352	
1180.20000	-0.0354	
1180.40000	-0.0354	
1180.60000	-0.0352	
1180.80000	-0.0356	
1181.00000	-0.0354	
1181.20000	-0.0352	
1181.40000	-0.0359	
1181.60000	-0.0357	
1181.80000	-0.0360	
1182.00000	-0.0360	
1182.20000	-0.0357	
1182.40000	-0.0362	
1182.60000	-0.0365	
1182.80000	-0.0365	
1183.00000	-0.0363	
1183.20000	-0.0366	
1183.40000	-0.0368	
1183.60000	-0.0368	
1183.80000	-0.0369	
1184.00000	-0.0374	
1184.20000	-0.0377	
1184.40000	-0.0378	
1184.60000	-0.0380	
1184.80000	-0.0380	
1185.00000	-0.0383	
1185.20000	-0.0380	
1185.40000	-0.0380	
1185.60000	-0.0380	
1185.80000	-0.0378	
1186.00000	-0.0375	
1186.20000	-0.0368	
1186.40000	-0.0363	
1186.60000	-0.0359	
1186.80000	-0.0349	
1187.00000	-0.0345	
1187.20000	-0.0340	
1187.40000	-0.0334	
1187.60000	-0.0325	
1187.80000	-0.0319	
1188.00000	-0.0310	
1188.20000	-0.0302	
1188.40000	-0.0296	
1188.60000	-0.0293	
1188.80000	-0.0282	
1189.00000	-0.0273	
1189.20000	-0.0261	
1189.40000	-0.0253	
1189.60000	-0.0241	
1189.80000	-0.0230	
1190.00000	-0.0217	
1190.20000	-0.0206	
1190.40000	-0.0188	
1190.60000	-0.0169	
1190.80000	-0.0153	
1191.00000	-0.0134	
1191.20000	-0.0111	
1191.40000	-0.0087	
1191.60000	-0.0064	
1191.80000	-0.0031	
1192.00000	 0.0000	
1192.20000	 0.0037	
1192.40000	 0.0075	
1192.60000	 0.0117	
1192.80000	 0.0162	
1193.00000	 0.0204	
1193.20000	 0.0250	
1193.40000	 0.0302	
1193.60000	 0.0360	
1193.80000	 0.0418	
1194.00000	 0.0482	
1194.20000	 0.0554	
1194.40000	 0.0626	
1194.60000	 0.0702	
1194.80000	 0.0789	
1195.00000	 0.0879	
1195.20000	 0.0966	
1195.40000	 0.1057	
1195.60000	 0.1146	
1195.80000	 0.1244	
1196.00000	 0.1341	
1196.20000	 0.1439	
1196.40000	 0.1544	
1196.60000	 0.1651	
1196.80000	 0.1759	
1197.00000	 0.1871	
1197.20000	 0.1984	
1197.40000	 0.2101	
1197.60000	 0.2217	
1197.80000	 0.2336	
1198.00000	 0.2461	
1198.20000	 0.2589	
1198.40000	 0.2719	
1198.60000	 0.2859	
1198.80000	 0.3004	
1199.00000	 0.3154	
1199.20000	 0.3310	
1199.40000	 0.3456	
1199.60000	 0.3590	
1199.80000	 0.3709	
1200.00000	 0.3810	
1200.20000	 0.3879	
1200.40000	 0.3937	
1200.60000	 0.3970	
1200.80000	 0.3979	
1201.00000	 0.3951	
1201.20000	 0.3886	
1201.40000	 0.3772	
1201.60000	 0.3600	
1201.80000	 0.3366	
1202.00000	 0.3067	
1202.20000	 0.2711	
1202.40000	 0.2301	
1202.60000	 0.1837	
1202.80000	 0.1321	
1203.00000	 0.0743	
1203.20000	 0.0102	
1203.40000	-0.0598	
1203.60000	-0.1344	
1203.80000	-0.2118	
1204.00000	-0.2905	
1204.20000	-0.3706	
1204.40000	-0.4512	
1204.60000	-0.5330	
1204.80000	-0.6146	
1205.00000	-0.6956	
1205.20000	-0.7758	
1205.40000	-0.8543	
1205.60000	-0.9305	
1205.80000	-1.0048	
1206.00000	-1.0777	
1206.20000	-1.1485	
1206.40000	-1.2155	
1206.60000	-1.2785	
1206.80000	-1.3358	
1207.00000	-1.3863	
1207.20000	-1.4293	
1207.40000	-1.4639	
1207.60000	-1.4908	
1207.80000	-1.5097	
1208.00000	-1.5221	
1208.20000	-1.5276	
1208.40000	-1.5271	
1208.60000	-1.5216	
1208.80000	-1.5106	
1209.00000	-1.4964	
1209.20000	-1.4778	
1209.40000	-1.4555	
1209.60000	-1.4307	
1209.80000	-1.4030	
1210.00000	-1.3728	
1210.20000	-1.3405	
1210.40000	-1.3062	
1210.60000	-1.2706	
1210.80000	-1.2332	
1211.00000	-1.1948	
1211.20000	-1.1557	
1211.40000	-1.1159	
1211.60000	-1.0764	
1211.80000	-1.0368	
1212.00000	-0.9976	
1212.20000	-0.9605	
1212.40000	-0.9245	
1212.60000	-0.8910	
1212.80000	-0.8600	
1213.00000	-0.8310	
1213.20000	-0.8052	
1213.40000	-0.7816	
1213.60000	-0.7600	
1213.80000	-0.7408	
1214.00000	-0.7233	
1214.20000	-0.7074	
1214.40000	-0.6935	
1214.60000	-0.6810	
1214.80000	-0.6688	
1215.00000	-0.6581	
1215.20000	-0.6473	
1215.40000	-0.6367	
1215.60000	-0.6256	
1215.80000	-0.6143	
1216.00000	-0.6020	
1216.20000	-0.5890	
1216.40000	-0.5745	
1216.60000	-0.5594	
1216.80000	-0.5432	
1217.00000	-0.5257	
1217.20000	-0.5070	
1217.40000	-0.4871	
1217.60000	-0.4663	
1217.80000	-0.4451	
1218.00000	-0.4227	
1218.20000	-0.3999	
1218.40000	-0.3769	
1218.60000	-0.3532	
1218.80000	-0.3293	
1219.00000	-0.3058	
1219.20000	-0.2821	
1219.40000	-0.2586	
1219.60000	-0.2351	
1219.80000	-0.2119	
1220.00000	-0.1891	
1220.20000	-0.1666	
1220.40000	-0.1443	
1220.60000	-0.1221	
1220.80000	-0.1004	
1221.00000	-0.0792	
1221.20000	-0.0586	
1221.40000	-0.0383	
1221.60000	-0.0189	
1221.80000	 0.0000	
1222.00000	 0.0188	
1222.20000	 0.0366	
1222.40000	 0.0542	
1222.60000	 0.0716	
1222.80000	 0.0879	
1223.00000	 0.1039	
1223.20000	 0.1192	
1223.40000	 0.1341	
1223.60000	 0.1488	
1223.80000	 0.1619	
1224.00000	 0.1759	
1224.20000	 0.1891	
1224.40000	 0.2017	
1224.60000	 0.2138	
1224.80000	 0.2255	
1225.00000	 0.2368	
1225.20000	 0.2478	
1225.40000	 0.2589	
1225.60000	 0.2698	
1225.80000	 0.2805	
1226.00000	 0.2910	
1226.20000	 0.3017	
1226.40000	 0.3122	
1226.60000	 0.3233	
1226.80000	 0.3343	
1227.00000	 0.3453	
1227.20000	 0.3563	
1227.40000	 0.3673	
1227.60000	 0.3787	
1227.80000	 0.3900	
1228.00000	 0.4013	
1228.20000	 0.4120	
1228.40000	 0.4233	
1228.60000	 0.4341	
1228.80000	 0.4442	
1229.00000	 0.4544	
1229.20000	 0.4646	
1229.40000	 0.4739	
1229.60000	 0.4834	
1229.80000	 0.4922	
1230.00000	 0.5006	
1230.20000	 0.5084	
1230.40000	 0.5159	
1230.60000	 0.5231	
1230.80000	 0.5295	
1231.00000	 0.5360	
1231.20000	 0.5420	
1231.40000	 0.5473	
1231.60000	 0.5525	
1231.80000	 0.5574	
1232.00000	 0.5621	
1232.20000	 0.5667	
1232.40000	 0.5705	
1232.60000	 0.5750	
1232.80000	 0.5789	
1233.00000	 0.5827	
1233.20000	 0.5862	
1233.40000	 0.5899	
1233.60000	 0.5931	
1233.80000	 0.5963	
1234.00000	 0.5994	
1234.20000	 0.6024	
1234.40000	 0.6058	
1234.60000	 0.6085	
1234.80000	 0.6113	
1235.00000	 0.6143	
1235.20000	 0.6165	
1235.40000	 0.6192	
1235.60000	 0.6215	
1235.80000	 0.6236	
1236.00000	 0.6259	
1236.20000	 0.6279	
1236.40000	 0.6302	
1236.60000	 0.6319	
1236.80000	 0.6337	
1237.00000	 0.6351	
