______________________	______________________	______________________	______________________	______________________	______________________	______________________	______________________	______________________	
data file :	C:\emka\iox_2_9_5_73\data\20190517-piga.mkt
saved on :	
______________________	______________________	______________________	______________________	______________________	______________________	______________________	______________________	______________________	
printed on :	june  12, 2019, at  14: 53: 32
export mode :	to text file
print author :	no_logged_user
print com :	no available comment
ecgAuto version :	3.3.5.6 []
original sample freq (Hz) :
	 ECG	5000
	 Pig Aortic Pressure	1000
	 Cam Fire	500
	 Bloom A	500
	 Bloom B	500
	 CFR	1000
undersampling factor :		1
print sample freq (Hz) :		5000
______________________	______________________	______________________	______________________	______________________	______________________	______________________	______________________	______________________	

time ms	 ECG	
	V	


...................	...................	...................	...................	...................	...................	...................	...................	...................	...................	...................	...................	...................	
zone-start :	ecg now	time duration s :	00.00000	data duration s :	15.00000	stream section :	1
in-period :	op 1, p 1, r 1, p[r] 1	Noname #1	0.00e+00	
start period-time :	  00:25:52.389
start CPU time :	may  17, 2019, 13: 42: 40
start site-time :	  00:25:52.390
...................	...................	...................	...................	...................	...................	...................	...................	...................	...................	...................	...................	...................	
0.20000	-0.0735	
0.40000	-0.0737	
0.60000	-0.0740	
0.80000	-0.0743	
1.00000	-0.0743	
1.20000	-0.0748	
1.40000	-0.0752	
1.60000	-0.0758	
1.80000	-0.0763	
2.00000	-0.0768	
2.20000	-0.0769	
2.40000	-0.0772	
2.60000	-0.0778	
2.80000	-0.0784	
3.00000	-0.0790	
3.20000	-0.0793	
3.40000	-0.0803	
3.60000	-0.0807	
3.80000	-0.0813	
4.00000	-0.0819	
4.20000	-0.0826	
4.40000	-0.0832	
4.60000	-0.0839	
4.80000	-0.0848	
5.00000	-0.0854	
5.20000	-0.0858	
5.40000	-0.0868	
5.60000	-0.0876	
5.80000	-0.0885	
6.00000	-0.0893	
6.20000	-0.0897	
6.40000	-0.0908	
6.60000	-0.0914	
6.80000	-0.0919	
7.00000	-0.0926	
7.20000	-0.0931	
7.40000	-0.0935	
7.60000	-0.0938	
7.80000	-0.0941	
8.00000	-0.0952	
8.20000	-0.0958	
8.40000	-0.0958	
8.60000	-0.0961	
8.80000	-0.0970	
9.00000	-0.0972	
9.20000	-0.0975	
9.40000	-0.0981	
9.60000	-0.0987	
9.80000	-0.0987	
10.00000	-0.0984	
10.20000	-0.0993	
10.40000	-0.0993	
10.60000	-0.0995	
10.80000	-0.0998	
11.00000	-0.1003	
11.20000	-0.1006	
11.40000	-0.1009	
11.60000	-0.1010	
11.80000	-0.1016	
12.00000	-0.1019	
12.20000	-0.1022	
12.40000	-0.1027	
12.60000	-0.1030	
12.80000	-0.1033	
13.00000	-0.1035	
13.20000	-0.1035	
13.40000	-0.1039	
13.60000	-0.1042	
13.80000	-0.1047	
14.00000	-0.1053	
14.20000	-0.1059	
14.40000	-0.1060	
14.60000	-0.1064	
14.80000	-0.1067	
15.00000	-0.1067	
15.20000	-0.1068	
15.40000	-0.1076	
15.60000	-0.1079	
15.80000	-0.1086	
16.00000	-0.1088	
16.20000	-0.1091	
16.40000	-0.1096	
16.60000	-0.1102	
16.80000	-0.1103	
17.00000	-0.1109	
17.20000	-0.1118	
17.40000	-0.1122	
17.60000	-0.1128	
17.80000	-0.1137	
18.00000	-0.1141	
18.20000	-0.1146	
18.40000	-0.1154	
18.60000	-0.1164	
18.80000	-0.1167	
19.00000	-0.1173	
19.20000	-0.1184	
19.40000	-0.1189	
19.60000	-0.1196	
19.80000	-0.1208	
20.00000	-0.1216	
20.20000	-0.1221	
20.40000	-0.1227	
20.60000	-0.1233	
20.80000	-0.1239	
21.00000	-0.1247	
21.20000	-0.1253	
21.40000	-0.1260	
21.60000	-0.1266	
21.80000	-0.1277	
22.00000	-0.1286	
22.20000	-0.1292	
22.40000	-0.1302	
22.60000	-0.1308	
22.80000	-0.1314	
23.00000	-0.1321	
23.20000	-0.1329	
23.40000	-0.1337	
23.60000	-0.1338	
23.80000	-0.1341	
24.00000	-0.1343	
24.20000	-0.1344	
24.40000	-0.1349	
24.60000	-0.1352	
24.80000	-0.1360	
25.00000	-0.1361	
25.20000	-0.1360	
25.40000	-0.1361	
25.60000	-0.1360	
25.80000	-0.1366	
26.00000	-0.1367	
26.20000	-0.1367	
26.40000	-0.1367	
26.60000	-0.1366	
26.80000	-0.1360	
27.00000	-0.1358	
27.20000	-0.1358	
27.40000	-0.1357	
27.60000	-0.1353	
27.80000	-0.1353	
28.00000	-0.1355	
28.20000	-0.1349	
28.40000	-0.1349	
28.60000	-0.1350	
28.80000	-0.1350	
29.00000	-0.1346	
29.20000	-0.1344	
29.40000	-0.1341	
29.60000	-0.1340	
29.80000	-0.1334	
30.00000	-0.1332	
30.20000	-0.1332	
30.40000	-0.1329	
30.60000	-0.1329	
30.80000	-0.1324	
31.00000	-0.1323	
31.20000	-0.1318	
31.40000	-0.1315	
31.60000	-0.1314	
31.80000	-0.1303	
32.00000	-0.1302	
32.20000	-0.1300	
32.40000	-0.1295	
32.60000	-0.1297	
32.80000	-0.1291	
33.00000	-0.1289	
33.20000	-0.1282	
33.40000	-0.1279	
33.60000	-0.1276	
33.80000	-0.1274	
34.00000	-0.1271	
34.20000	-0.1270	
34.40000	-0.1265	
34.60000	-0.1263	
34.80000	-0.1263	
35.00000	-0.1263	
35.20000	-0.1263	
35.40000	-0.1259	
35.60000	-0.1257	
35.80000	-0.1254	
36.00000	-0.1256	
36.20000	-0.1254	
36.40000	-0.1254	
36.60000	-0.1251	
36.80000	-0.1251	
37.00000	-0.1248	
37.20000	-0.1248	
37.40000	-0.1245	
37.60000	-0.1248	
37.80000	-0.1245	
38.00000	-0.1247	
38.20000	-0.1242	
38.40000	-0.1244	
38.60000	-0.1237	
38.80000	-0.1239	
39.00000	-0.1237	
39.20000	-0.1234	
39.40000	-0.1231	
39.60000	-0.1230	
39.80000	-0.1228	
40.00000	-0.1228	
40.20000	-0.1221	
40.40000	-0.1213	
40.60000	-0.1208	
40.80000	-0.1204	
41.00000	-0.1201	
41.20000	-0.1196	
41.40000	-0.1189	
41.60000	-0.1187	
41.80000	-0.1175	
42.00000	-0.1170	
42.20000	-0.1167	
42.40000	-0.1155	
42.60000	-0.1152	
42.80000	-0.1147	
43.00000	-0.1138	
43.20000	-0.1126	
43.40000	-0.1118	
43.60000	-0.1105	
43.80000	-0.1099	
44.00000	-0.1089	
44.20000	-0.1079	
44.40000	-0.1070	
44.60000	-0.1062	
44.80000	-0.1053	
45.00000	-0.1044	
45.20000	-0.1038	
45.40000	-0.1031	
45.60000	-0.1021	
45.80000	-0.1013	
46.00000	-0.1004	
46.20000	-0.0993	
46.40000	-0.0987	
46.60000	-0.0977	
46.80000	-0.0964	
47.00000	-0.0960	
47.20000	-0.0954	
47.40000	-0.0948	
47.60000	-0.0937	
47.80000	-0.0931	
48.00000	-0.0926	
48.20000	-0.0911	
48.40000	-0.0903	
48.60000	-0.0896	
48.80000	-0.0888	
49.00000	-0.0882	
49.20000	-0.0873	
49.40000	-0.0867	
49.60000	-0.0861	
49.80000	-0.0851	
50.00000	-0.0844	
50.20000	-0.0835	
50.40000	-0.0832	
50.60000	-0.0827	
50.80000	-0.0815	
51.00000	-0.0809	
51.20000	-0.0807	
51.40000	-0.0801	
51.60000	-0.0798	
51.80000	-0.0793	
52.00000	-0.0789	
52.20000	-0.0786	
52.40000	-0.0780	
52.60000	-0.0777	
52.80000	-0.0778	
53.00000	-0.0772	
53.20000	-0.0768	
53.40000	-0.0768	
53.60000	-0.0761	
53.80000	-0.0758	
54.00000	-0.0752	
54.20000	-0.0749	
54.40000	-0.0748	
54.60000	-0.0748	
54.80000	-0.0745	
55.00000	-0.0742	
55.20000	-0.0740	
55.40000	-0.0737	
55.60000	-0.0737	
55.80000	-0.0735	
56.00000	-0.0731	
56.20000	-0.0728	
56.40000	-0.0726	
56.60000	-0.0725	
56.80000	-0.0720	
57.00000	-0.0716	
57.20000	-0.0708	
57.40000	-0.0703	
57.60000	-0.0700	
57.80000	-0.0694	
58.00000	-0.0691	
58.20000	-0.0685	
58.40000	-0.0681	
58.60000	-0.0671	
58.80000	-0.0670	
59.00000	-0.0659	
59.20000	-0.0656	
59.40000	-0.0653	
59.60000	-0.0644	
59.80000	-0.0632	
60.00000	-0.0627	
60.20000	-0.0618	
60.40000	-0.0609	
60.60000	-0.0600	
60.80000	-0.0594	
61.00000	-0.0586	
61.20000	-0.0574	
61.40000	-0.0568	
61.60000	-0.0557	
61.80000	-0.0549	
62.00000	-0.0548	
62.20000	-0.0539	
62.40000	-0.0533	
62.60000	-0.0526	
62.80000	-0.0516	
63.00000	-0.0508	
63.20000	-0.0500	
63.40000	-0.0494	
63.60000	-0.0490	
63.80000	-0.0485	
64.00000	-0.0481	
64.20000	-0.0476	
64.40000	-0.0468	
64.60000	-0.0459	
64.80000	-0.0452	
65.00000	-0.0443	
65.20000	-0.0433	
65.40000	-0.0426	
65.60000	-0.0423	
65.80000	-0.0417	
66.00000	-0.0409	
66.20000	-0.0404	
66.40000	-0.0398	
66.60000	-0.0394	
66.80000	-0.0383	
67.00000	-0.0378	
67.20000	-0.0375	
67.40000	-0.0368	
67.60000	-0.0363	
67.80000	-0.0359	
68.00000	-0.0354	
68.20000	-0.0346	
68.40000	-0.0348	
68.60000	-0.0343	
68.80000	-0.0342	
69.00000	-0.0337	
69.20000	-0.0336	
69.40000	-0.0336	
69.60000	-0.0334	
69.80000	-0.0334	
70.00000	-0.0333	
70.20000	-0.0327	
70.40000	-0.0325	
70.60000	-0.0323	
70.80000	-0.0320	
71.00000	-0.0319	
71.20000	-0.0317	
71.40000	-0.0316	
71.60000	-0.0314	
71.80000	-0.0313	
72.00000	-0.0314	
72.20000	-0.0311	
72.40000	-0.0317	
72.60000	-0.0313	
72.80000	-0.0310	
73.00000	-0.0311	
73.20000	-0.0313	
73.40000	-0.0305	
73.60000	-0.0304	
73.80000	-0.0299	
74.00000	-0.0294	
74.20000	-0.0290	
74.40000	-0.0285	
74.60000	-0.0282	
74.80000	-0.0281	
75.00000	-0.0273	
75.20000	-0.0270	
75.40000	-0.0264	
75.60000	-0.0256	
75.80000	-0.0256	
76.00000	-0.0255	
76.20000	-0.0249	
76.40000	-0.0241	
76.60000	-0.0232	
76.80000	-0.0229	
77.00000	-0.0224	
77.20000	-0.0215	
77.40000	-0.0209	
77.60000	-0.0203	
77.80000	-0.0200	
78.00000	-0.0191	
78.20000	-0.0186	
78.40000	-0.0183	
78.60000	-0.0174	
78.80000	-0.0168	
79.00000	-0.0165	
79.20000	-0.0160	
79.40000	-0.0153	
79.60000	-0.0145	
79.80000	-0.0143	
80.00000	-0.0134	
80.20000	-0.0134	
80.40000	-0.0128	
80.60000	-0.0125	
80.80000	-0.0121	
81.00000	-0.0116	
81.20000	-0.0111	
81.40000	-0.0105	
81.60000	-0.0098	
81.80000	-0.0090	
82.00000	-0.0089	
82.20000	-0.0081	
82.40000	-0.0082	
82.60000	-0.0076	
82.80000	-0.0072	
83.00000	-0.0072	
83.20000	-0.0064	
83.40000	-0.0060	
83.60000	-0.0061	
83.80000	-0.0056	
84.00000	-0.0052	
84.20000	-0.0052	
84.40000	-0.0052	
84.60000	-0.0049	
84.80000	-0.0049	
85.00000	-0.0052	
85.20000	-0.0050	
85.40000	-0.0050	
85.60000	-0.0049	
85.80000	-0.0049	
86.00000	-0.0050	
86.20000	-0.0056	
86.40000	-0.0055	
86.60000	-0.0058	
86.80000	-0.0058	
87.00000	-0.0058	
87.20000	-0.0058	
87.40000	-0.0064	
87.60000	-0.0063	
87.80000	-0.0066	
88.00000	-0.0069	
88.20000	-0.0070	
88.40000	-0.0073	
88.60000	-0.0078	
88.80000	-0.0079	
89.00000	-0.0084	
89.20000	-0.0084	
89.40000	-0.0085	
89.60000	-0.0085	
89.80000	-0.0090	
90.00000	-0.0098	
90.20000	-0.0098	
90.40000	-0.0095	
90.60000	-0.0092	
90.80000	-0.0090	
91.00000	-0.0092	
91.20000	-0.0092	
91.40000	-0.0095	
91.60000	-0.0098	
91.80000	-0.0089	
92.00000	-0.0087	
92.20000	-0.0090	
92.40000	-0.0085	
92.60000	-0.0085	
92.80000	-0.0085	
93.00000	-0.0082	
93.20000	-0.0076	
93.40000	-0.0078	
93.60000	-0.0072	
93.80000	-0.0070	
94.00000	-0.0069	
94.20000	-0.0061	
94.40000	-0.0063	
94.60000	-0.0061	
94.80000	-0.0056	
95.00000	-0.0052	
95.20000	-0.0050	
95.40000	-0.0047	
95.60000	-0.0050	
95.80000	-0.0047	
96.00000	-0.0043	
96.20000	-0.0038	
96.40000	-0.0037	
96.60000	-0.0037	
96.80000	-0.0034	
97.00000	-0.0034	
97.20000	-0.0037	
97.40000	-0.0031	
97.60000	-0.0034	
97.80000	-0.0034	
98.00000	-0.0027	
98.20000	-0.0024	
98.40000	-0.0021	
98.60000	-0.0017	
98.80000	-0.0018	
99.00000	-0.0018	
99.20000	-0.0017	
99.40000	-0.0015	
99.60000	-0.0017	
99.80000	-0.0014	
100.00000	-0.0014	
100.20000	-0.0015	
100.40000	-0.0015	
100.60000	-0.0014	
100.80000	-0.0017	
101.00000	-0.0020	
101.20000	-0.0018	
101.40000	-0.0020	
101.60000	-0.0021	
101.80000	-0.0026	
102.00000	-0.0027	
102.20000	-0.0029	
102.40000	-0.0034	
102.60000	-0.0034	
102.80000	-0.0037	
103.00000	-0.0043	
103.20000	-0.0046	
103.40000	-0.0047	
103.60000	-0.0047	
103.80000	-0.0052	
104.00000	-0.0060	
104.20000	-0.0061	
104.40000	-0.0066	
104.60000	-0.0072	
104.80000	-0.0076	
105.00000	-0.0078	
105.20000	-0.0084	
105.40000	-0.0087	
105.60000	-0.0093	
105.80000	-0.0098	
106.00000	-0.0099	
106.20000	-0.0102	
106.40000	-0.0107	
106.60000	-0.0111	
106.80000	-0.0114	
107.00000	-0.0114	
107.20000	-0.0114	
107.40000	-0.0114	
107.60000	-0.0121	
107.80000	-0.0116	
108.00000	-0.0124	
108.20000	-0.0124	
108.40000	-0.0121	
108.60000	-0.0121	
108.80000	-0.0124	
109.00000	-0.0125	
109.20000	-0.0125	
109.40000	-0.0124	
109.60000	-0.0124	
109.80000	-0.0121	
110.00000	-0.0121	
110.20000	-0.0119	
110.40000	-0.0114	
110.60000	-0.0114	
110.80000	-0.0116	
111.00000	-0.0114	
111.20000	-0.0111	
111.40000	-0.0111	
111.60000	-0.0110	
111.80000	-0.0104	
112.00000	-0.0102	
112.20000	-0.0102	
112.40000	-0.0101	
112.60000	-0.0098	
112.80000	-0.0093	
113.00000	-0.0093	
113.20000	-0.0089	
113.40000	-0.0087	
113.60000	-0.0084	
113.80000	-0.0084	
114.00000	-0.0084	
114.20000	-0.0082	
114.40000	-0.0079	
114.60000	-0.0079	
114.80000	-0.0076	
115.00000	-0.0070	
115.20000	-0.0069	
115.40000	-0.0069	
115.60000	-0.0069	
115.80000	-0.0070	
116.00000	-0.0069	
116.20000	-0.0070	
116.40000	-0.0070	
116.60000	-0.0066	
116.80000	-0.0066	
117.00000	-0.0066	
117.20000	-0.0066	
117.40000	-0.0066	
117.60000	-0.0069	
117.80000	-0.0070	
118.00000	-0.0069	
118.20000	-0.0076	
118.40000	-0.0079	
118.60000	-0.0079	
118.80000	-0.0078	
119.00000	-0.0081	
119.20000	-0.0084	
119.40000	-0.0089	
119.60000	-0.0093	
119.80000	-0.0098	
120.00000	-0.0102	
120.20000	-0.0105	
120.40000	-0.0105	
120.60000	-0.0110	
120.80000	-0.0111	
121.00000	-0.0119	
121.20000	-0.0121	
121.40000	-0.0125	
121.60000	-0.0130	
121.80000	-0.0134	
122.00000	-0.0136	
122.20000	-0.0143	
122.40000	-0.0148	
122.60000	-0.0150	
122.80000	-0.0157	
123.00000	-0.0163	
123.20000	-0.0165	
123.40000	-0.0168	
123.60000	-0.0169	
123.80000	-0.0171	
124.00000	-0.0166	
124.20000	-0.0169	
124.40000	-0.0171	
124.60000	-0.0172	
124.80000	-0.0177	
125.00000	-0.0175	
125.20000	-0.0171	
125.40000	-0.0172	
125.60000	-0.0171	
125.80000	-0.0171	
126.00000	-0.0172	
126.20000	-0.0169	
126.40000	-0.0169	
126.60000	-0.0166	
126.80000	-0.0163	
127.00000	-0.0165	
127.20000	-0.0166	
127.40000	-0.0163	
127.60000	-0.0163	
127.80000	-0.0163	
128.00000	-0.0162	
128.20000	-0.0162	
128.40000	-0.0162	
128.60000	-0.0160	
128.80000	-0.0154	
129.00000	-0.0153	
129.20000	-0.0153	
129.40000	-0.0151	
129.60000	-0.0148	
129.80000	-0.0146	
130.00000	-0.0137	
130.20000	-0.0137	
130.40000	-0.0140	
130.60000	-0.0134	
130.80000	-0.0134	
131.00000	-0.0131	
131.20000	-0.0133	
131.40000	-0.0128	
131.60000	-0.0125	
131.80000	-0.0122	
132.00000	-0.0119	
132.20000	-0.0125	
132.40000	-0.0124	
132.60000	-0.0116	
132.80000	-0.0119	
133.00000	-0.0119	
133.20000	-0.0114	
133.40000	-0.0111	
133.60000	-0.0111	
133.80000	-0.0111	
134.00000	-0.0110	
134.20000	-0.0111	
134.40000	-0.0111	
134.60000	-0.0111	
134.80000	-0.0113	
135.00000	-0.0119	
135.20000	-0.0119	
135.40000	-0.0122	
135.60000	-0.0122	
135.80000	-0.0124	
136.00000	-0.0127	
136.20000	-0.0131	
136.40000	-0.0131	
136.60000	-0.0134	
136.80000	-0.0136	
137.00000	-0.0136	
137.20000	-0.0143	
137.40000	-0.0146	
137.60000	-0.0146	
137.80000	-0.0153	
138.00000	-0.0157	
138.20000	-0.0157	
138.40000	-0.0163	
138.60000	-0.0166	
138.80000	-0.0174	
139.00000	-0.0175	
139.20000	-0.0183	
139.40000	-0.0188	
139.60000	-0.0189	
139.80000	-0.0192	
140.00000	-0.0197	
140.20000	-0.0197	
140.40000	-0.0195	
140.60000	-0.0195	
140.80000	-0.0194	
141.00000	-0.0192	
141.20000	-0.0195	
141.40000	-0.0195	
141.60000	-0.0195	
141.80000	-0.0197	
142.00000	-0.0197	
142.20000	-0.0195	
142.40000	-0.0200	
142.60000	-0.0206	
142.80000	-0.0200	
143.00000	-0.0197	
143.20000	-0.0194	
143.40000	-0.0191	
143.60000	-0.0188	
143.80000	-0.0185	
144.00000	-0.0183	
144.20000	-0.0182	
144.40000	-0.0174	
144.60000	-0.0174	
144.80000	-0.0171	
145.00000	-0.0169	
145.20000	-0.0169	
145.40000	-0.0166	
145.60000	-0.0163	
145.80000	-0.0162	
146.00000	-0.0160	
146.20000	-0.0157	
146.40000	-0.0153	
146.60000	-0.0151	
146.80000	-0.0150	
147.00000	-0.0148	
147.20000	-0.0146	
147.40000	-0.0146	
147.60000	-0.0143	
147.80000	-0.0140	
148.00000	-0.0142	
148.20000	-0.0133	
148.40000	-0.0131	
148.60000	-0.0128	
148.80000	-0.0128	
149.00000	-0.0128	
149.20000	-0.0128	
149.40000	-0.0125	
149.60000	-0.0125	
149.80000	-0.0127	
150.00000	-0.0124	
150.20000	-0.0124	
150.40000	-0.0125	
150.60000	-0.0124	
150.80000	-0.0122	
151.00000	-0.0125	
151.20000	-0.0122	
151.40000	-0.0124	
151.60000	-0.0127	
151.80000	-0.0128	
152.00000	-0.0127	
152.20000	-0.0130	
152.40000	-0.0133	
152.60000	-0.0131	
152.80000	-0.0136	
153.00000	-0.0140	
153.20000	-0.0143	
153.40000	-0.0145	
153.60000	-0.0150	
153.80000	-0.0153	
154.00000	-0.0156	
154.20000	-0.0160	
154.40000	-0.0166	
154.60000	-0.0168	
154.80000	-0.0172	
155.00000	-0.0174	
155.20000	-0.0177	
155.40000	-0.0182	
155.60000	-0.0185	
155.80000	-0.0189	
156.00000	-0.0192	
156.20000	-0.0192	
156.40000	-0.0200	
156.60000	-0.0198	
156.80000	-0.0204	
157.00000	-0.0204	
157.20000	-0.0203	
157.40000	-0.0204	
157.60000	-0.0206	
157.80000	-0.0204	
158.00000	-0.0211	
158.20000	-0.0206	
158.40000	-0.0211	
158.60000	-0.0208	
158.80000	-0.0204	
159.00000	-0.0204	
159.20000	-0.0206	
159.40000	-0.0203	
159.60000	-0.0203	
159.80000	-0.0195	
160.00000	-0.0194	
160.20000	-0.0191	
160.40000	-0.0189	
160.60000	-0.0188	
160.80000	-0.0183	
161.00000	-0.0183	
161.20000	-0.0179	
161.40000	-0.0177	
161.60000	-0.0177	
161.80000	-0.0174	
162.00000	-0.0175	
162.20000	-0.0174	
162.40000	-0.0169	
162.60000	-0.0168	
162.80000	-0.0168	
163.00000	-0.0163	
163.20000	-0.0157	
163.40000	-0.0157	
163.60000	-0.0154	
163.80000	-0.0156	
164.00000	-0.0154	
164.20000	-0.0154	
164.40000	-0.0151	
164.60000	-0.0150	
164.80000	-0.0146	
165.00000	-0.0142	
165.20000	-0.0142	
165.40000	-0.0143	
165.60000	-0.0142	
165.80000	-0.0145	
166.00000	-0.0143	
166.20000	-0.0140	
166.40000	-0.0136	
166.60000	-0.0136	
166.80000	-0.0134	
167.00000	-0.0133	
167.20000	-0.0134	
167.40000	-0.0134	
167.60000	-0.0133	
167.80000	-0.0136	
168.00000	-0.0136	
168.20000	-0.0140	
168.40000	-0.0140	
168.60000	-0.0143	
168.80000	-0.0142	
169.00000	-0.0142	
169.20000	-0.0142	
169.40000	-0.0145	
169.60000	-0.0150	
169.80000	-0.0156	
170.00000	-0.0156	
170.20000	-0.0156	
170.40000	-0.0160	
170.60000	-0.0162	
170.80000	-0.0166	
171.00000	-0.0165	
171.20000	-0.0172	
171.40000	-0.0174	
171.60000	-0.0174	
171.80000	-0.0183	
172.00000	-0.0186	
172.20000	-0.0191	
172.40000	-0.0194	
172.60000	-0.0197	
172.80000	-0.0200	
173.00000	-0.0204	
173.20000	-0.0211	
173.40000	-0.0212	
173.60000	-0.0211	
173.80000	-0.0209	
174.00000	-0.0209	
174.20000	-0.0212	
174.40000	-0.0211	
174.60000	-0.0214	
174.80000	-0.0215	
175.00000	-0.0220	
175.20000	-0.0215	
175.40000	-0.0214	
175.60000	-0.0212	
175.80000	-0.0211	
176.00000	-0.0215	
176.20000	-0.0214	
176.40000	-0.0211	
176.60000	-0.0208	
176.80000	-0.0206	
177.00000	-0.0203	
177.20000	-0.0200	
177.40000	-0.0195	
177.60000	-0.0194	
177.80000	-0.0192	
178.00000	-0.0189	
178.20000	-0.0185	
178.40000	-0.0185	
178.60000	-0.0183	
178.80000	-0.0183	
179.00000	-0.0179	
179.20000	-0.0177	
179.40000	-0.0175	
179.60000	-0.0174	
179.80000	-0.0169	
180.00000	-0.0162	
180.20000	-0.0165	
180.40000	-0.0160	
180.60000	-0.0157	
180.80000	-0.0157	
181.00000	-0.0156	
181.20000	-0.0154	
181.40000	-0.0151	
181.60000	-0.0146	
181.80000	-0.0145	
182.00000	-0.0140	
182.20000	-0.0142	
182.40000	-0.0145	
182.60000	-0.0143	
182.80000	-0.0142	
183.00000	-0.0142	
183.20000	-0.0136	
183.40000	-0.0134	
183.60000	-0.0136	
183.80000	-0.0133	
184.00000	-0.0133	
184.20000	-0.0133	
184.40000	-0.0134	
184.60000	-0.0136	
184.80000	-0.0134	
185.00000	-0.0136	
185.20000	-0.0140	
185.40000	-0.0140	
185.60000	-0.0140	
185.80000	-0.0145	
186.00000	-0.0145	
186.20000	-0.0154	
186.40000	-0.0151	
186.60000	-0.0154	
186.80000	-0.0157	
187.00000	-0.0160	
187.20000	-0.0162	
187.40000	-0.0168	
187.60000	-0.0171	
187.80000	-0.0172	
188.00000	-0.0177	
188.20000	-0.0183	
188.40000	-0.0185	
188.60000	-0.0188	
188.80000	-0.0192	
189.00000	-0.0195	
189.20000	-0.0200	
189.40000	-0.0204	
189.60000	-0.0208	
189.80000	-0.0209	
190.00000	-0.0212	
190.20000	-0.0215	
190.40000	-0.0214	
190.60000	-0.0212	
190.80000	-0.0214	
191.00000	-0.0211	
191.20000	-0.0214	
191.40000	-0.0220	
191.60000	-0.0220	
191.80000	-0.0215	
192.00000	-0.0215	
192.20000	-0.0212	
192.40000	-0.0212	
192.60000	-0.0215	
192.80000	-0.0215	
193.00000	-0.0211	
193.20000	-0.0211	
193.40000	-0.0208	
193.60000	-0.0203	
193.80000	-0.0200	
194.00000	-0.0200	
194.20000	-0.0194	
194.40000	-0.0194	
194.60000	-0.0192	
194.80000	-0.0189	
195.00000	-0.0191	
195.20000	-0.0189	
195.40000	-0.0185	
195.60000	-0.0182	
195.80000	-0.0179	
196.00000	-0.0182	
196.20000	-0.0174	
196.40000	-0.0172	
196.60000	-0.0168	
196.80000	-0.0168	
197.00000	-0.0165	
197.20000	-0.0163	
197.40000	-0.0157	
197.60000	-0.0160	
197.80000	-0.0156	
198.00000	-0.0156	
198.20000	-0.0150	
198.40000	-0.0145	
198.60000	-0.0143	
198.80000	-0.0143	
199.00000	-0.0142	
199.20000	-0.0145	
199.40000	-0.0142	
199.60000	-0.0142	
199.80000	-0.0140	
200.00000	-0.0137	
200.20000	-0.0140	
200.40000	-0.0137	
200.60000	-0.0137	
200.80000	-0.0140	
201.00000	-0.0137	
201.20000	-0.0137	
201.40000	-0.0140	
201.60000	-0.0143	
201.80000	-0.0145	
202.00000	-0.0146	
202.20000	-0.0148	
202.40000	-0.0148	
202.60000	-0.0151	
202.80000	-0.0154	
203.00000	-0.0160	
203.20000	-0.0163	
203.40000	-0.0163	
203.60000	-0.0165	
203.80000	-0.0169	
204.00000	-0.0171	
204.20000	-0.0174	
204.40000	-0.0182	
204.60000	-0.0182	
204.80000	-0.0185	
205.00000	-0.0186	
205.20000	-0.0191	
205.40000	-0.0195	
205.60000	-0.0200	
205.80000	-0.0203	
206.00000	-0.0206	
206.20000	-0.0208	
206.40000	-0.0214	
206.60000	-0.0214	
206.80000	-0.0217	
207.00000	-0.0218	
207.20000	-0.0218	
207.40000	-0.0217	
207.60000	-0.0218	
207.80000	-0.0217	
208.00000	-0.0220	
208.20000	-0.0221	
208.40000	-0.0221	
208.60000	-0.0220	
208.80000	-0.0217	
209.00000	-0.0218	
209.20000	-0.0217	
209.40000	-0.0220	
209.60000	-0.0218	
209.80000	-0.0214	
210.00000	-0.0211	
210.20000	-0.0209	
210.40000	-0.0208	
210.60000	-0.0204	
210.80000	-0.0200	
211.00000	-0.0198	
211.20000	-0.0194	
211.40000	-0.0194	
211.60000	-0.0192	
211.80000	-0.0191	
212.00000	-0.0188	
212.20000	-0.0188	
212.40000	-0.0186	
212.60000	-0.0183	
212.80000	-0.0182	
213.00000	-0.0175	
213.20000	-0.0169	
213.40000	-0.0168	
213.60000	-0.0166	
213.80000	-0.0166	
214.00000	-0.0163	
214.20000	-0.0157	
214.40000	-0.0157	
214.60000	-0.0156	
214.80000	-0.0151	
215.00000	-0.0146	
215.20000	-0.0146	
215.40000	-0.0143	
215.60000	-0.0143	
215.80000	-0.0150	
216.00000	-0.0143	
216.20000	-0.0145	
216.40000	-0.0142	
216.60000	-0.0142	
216.80000	-0.0142	
217.00000	-0.0137	
217.20000	-0.0142	
217.40000	-0.0142	
217.60000	-0.0140	
217.80000	-0.0140	
218.00000	-0.0143	
218.20000	-0.0142	
218.40000	-0.0142	
218.60000	-0.0146	
218.80000	-0.0146	
219.00000	-0.0146	
219.20000	-0.0151	
219.40000	-0.0154	
219.60000	-0.0156	
219.80000	-0.0157	
220.00000	-0.0163	
220.20000	-0.0165	
220.40000	-0.0166	
220.60000	-0.0169	
220.80000	-0.0172	
221.00000	-0.0175	
221.20000	-0.0179	
221.40000	-0.0182	
221.60000	-0.0186	
221.80000	-0.0191	
222.00000	-0.0194	
222.20000	-0.0195	
222.40000	-0.0198	
222.60000	-0.0206	
222.80000	-0.0208	
223.00000	-0.0209	
223.20000	-0.0214	
223.40000	-0.0215	
223.60000	-0.0215	
223.80000	-0.0217	
224.00000	-0.0217	
224.20000	-0.0215	
224.40000	-0.0217	
224.60000	-0.0218	
224.80000	-0.0220	
225.00000	-0.0224	
225.20000	-0.0217	
225.40000	-0.0217	
225.60000	-0.0214	
225.80000	-0.0215	
226.00000	-0.0217	
226.20000	-0.0214	
226.40000	-0.0211	
226.60000	-0.0209	
226.80000	-0.0206	
227.00000	-0.0204	
227.20000	-0.0198	
227.40000	-0.0197	
227.60000	-0.0195	
227.80000	-0.0191	
228.00000	-0.0188	
228.20000	-0.0185	
228.40000	-0.0183	
228.60000	-0.0183	
228.80000	-0.0179	
229.00000	-0.0174	
229.20000	-0.0174	
229.40000	-0.0172	
229.60000	-0.0168	
229.80000	-0.0166	
230.00000	-0.0163	
230.20000	-0.0163	
230.40000	-0.0162	
230.60000	-0.0157	
230.80000	-0.0157	
231.00000	-0.0156	
231.20000	-0.0154	
231.40000	-0.0150	
231.60000	-0.0146	
231.80000	-0.0142	
232.00000	-0.0137	
232.20000	-0.0137	
232.40000	-0.0142	
232.60000	-0.0142	
232.80000	-0.0137	
233.00000	-0.0137	
233.20000	-0.0134	
233.40000	-0.0134	
233.60000	-0.0133	
233.80000	-0.0131	
234.00000	-0.0131	
234.20000	-0.0131	
234.40000	-0.0131	
234.60000	-0.0131	
234.80000	-0.0134	
235.00000	-0.0137	
235.20000	-0.0136	
235.40000	-0.0137	
235.60000	-0.0137	
235.80000	-0.0140	
236.00000	-0.0143	
236.20000	-0.0146	
236.40000	-0.0151	
236.60000	-0.0153	
236.80000	-0.0154	
237.00000	-0.0162	
237.20000	-0.0162	
237.40000	-0.0165	
237.60000	-0.0169	
237.80000	-0.0172	
238.00000	-0.0174	
238.20000	-0.0177	
238.40000	-0.0182	
238.60000	-0.0186	
238.80000	-0.0189	
239.00000	-0.0191	
239.20000	-0.0194	
239.40000	-0.0194	
239.60000	-0.0200	
239.80000	-0.0203	
240.00000	-0.0206	
240.20000	-0.0209	
240.40000	-0.0208	
240.60000	-0.0206	
240.80000	-0.0208	
241.00000	-0.0208	
241.20000	-0.0206	
241.40000	-0.0211	
241.60000	-0.0212	
241.80000	-0.0212	
242.00000	-0.0209	
242.20000	-0.0211	
242.40000	-0.0208	
242.60000	-0.0211	
242.80000	-0.0209	
243.00000	-0.0209	
243.20000	-0.0204	
243.40000	-0.0197	
243.60000	-0.0195	
243.80000	-0.0194	
244.00000	-0.0194	
244.20000	-0.0189	
244.40000	-0.0188	
244.60000	-0.0188	
244.80000	-0.0185	
245.00000	-0.0182	
245.20000	-0.0179	
245.40000	-0.0175	
245.60000	-0.0175	
245.80000	-0.0171	
246.00000	-0.0168	
246.20000	-0.0165	
246.40000	-0.0162	
246.60000	-0.0156	
246.80000	-0.0154	
247.00000	-0.0153	
247.20000	-0.0151	
247.40000	-0.0148	
247.60000	-0.0148	
247.80000	-0.0146	
248.00000	-0.0145	
248.20000	-0.0137	
248.40000	-0.0134	
248.60000	-0.0134	
248.80000	-0.0136	
249.00000	-0.0136	
249.20000	-0.0134	
249.40000	-0.0133	
249.60000	-0.0133	
249.80000	-0.0131	
250.00000	-0.0130	
250.20000	-0.0130	
250.40000	-0.0128	
250.60000	-0.0128	
250.80000	-0.0127	
251.00000	-0.0128	
251.20000	-0.0131	
251.40000	-0.0130	
251.60000	-0.0131	
251.80000	-0.0134	
252.00000	-0.0136	
252.20000	-0.0134	
252.40000	-0.0137	
252.60000	-0.0140	
252.80000	-0.0143	
253.00000	-0.0148	
253.20000	-0.0150	
253.40000	-0.0151	
253.60000	-0.0151	
253.80000	-0.0154	
254.00000	-0.0154	
254.20000	-0.0157	
254.40000	-0.0160	
254.60000	-0.0166	
254.80000	-0.0168	
255.00000	-0.0174	
255.20000	-0.0175	
255.40000	-0.0177	
255.60000	-0.0185	
255.80000	-0.0186	
256.00000	-0.0191	
256.20000	-0.0191	
256.40000	-0.0194	
256.60000	-0.0198	
256.80000	-0.0198	
257.00000	-0.0200	
257.20000	-0.0197	
257.40000	-0.0200	
257.60000	-0.0197	
257.80000	-0.0198	
258.00000	-0.0200	
258.20000	-0.0204	
258.40000	-0.0206	
258.60000	-0.0197	
258.80000	-0.0200	
259.00000	-0.0200	
259.20000	-0.0198	
259.40000	-0.0198	
259.60000	-0.0197	
259.80000	-0.0195	
260.00000	-0.0191	
260.20000	-0.0189	
260.40000	-0.0189	
260.60000	-0.0185	
260.80000	-0.0179	
261.00000	-0.0179	
261.20000	-0.0175	
261.40000	-0.0171	
261.60000	-0.0168	
261.80000	-0.0168	
262.00000	-0.0168	
262.20000	-0.0168	
262.40000	-0.0165	
262.60000	-0.0163	
262.80000	-0.0160	
263.00000	-0.0157	
263.20000	-0.0151	
263.40000	-0.0153	
263.60000	-0.0150	
263.80000	-0.0150	
264.00000	-0.0146	
264.20000	-0.0146	
264.40000	-0.0145	
264.60000	-0.0142	
264.80000	-0.0136	
265.00000	-0.0136	
265.20000	-0.0130	
265.40000	-0.0130	
265.60000	-0.0134	
265.80000	-0.0137	
266.00000	-0.0130	
266.20000	-0.0131	
266.40000	-0.0130	
266.60000	-0.0130	
266.80000	-0.0127	
267.00000	-0.0127	
267.20000	-0.0127	
267.40000	-0.0125	
267.60000	-0.0127	
267.80000	-0.0128	
268.00000	-0.0125	
268.20000	-0.0128	
268.40000	-0.0128	
268.60000	-0.0128	
268.80000	-0.0130	
269.00000	-0.0130	
269.20000	-0.0130	
269.40000	-0.0133	
269.60000	-0.0137	
269.80000	-0.0140	
270.00000	-0.0145	
270.20000	-0.0148	
270.40000	-0.0148	
270.60000	-0.0150	
270.80000	-0.0153	
271.00000	-0.0156	
271.20000	-0.0160	
271.40000	-0.0162	
271.60000	-0.0165	
271.80000	-0.0169	
272.00000	-0.0171	
272.20000	-0.0174	
272.40000	-0.0183	
272.60000	-0.0188	
272.80000	-0.0189	
273.00000	-0.0192	
273.20000	-0.0195	
273.40000	-0.0203	
273.60000	-0.0197	
273.80000	-0.0200	
274.00000	-0.0197	
274.20000	-0.0197	
274.40000	-0.0197	
274.60000	-0.0197	
274.80000	-0.0204	
275.00000	-0.0200	
275.20000	-0.0197	
275.40000	-0.0197	
275.60000	-0.0197	
275.80000	-0.0195	
276.00000	-0.0197	
276.20000	-0.0194	
276.40000	-0.0195	
276.60000	-0.0192	
276.80000	-0.0188	
277.00000	-0.0188	
277.20000	-0.0186	
277.40000	-0.0183	
277.60000	-0.0179	
277.80000	-0.0177	
278.00000	-0.0172	
278.20000	-0.0169	
278.40000	-0.0166	
278.60000	-0.0166	
278.80000	-0.0166	
279.00000	-0.0162	
279.20000	-0.0162	
279.40000	-0.0157	
279.60000	-0.0156	
279.80000	-0.0151	
280.00000	-0.0148	
280.20000	-0.0150	
280.40000	-0.0145	
280.60000	-0.0143	
280.80000	-0.0143	
281.00000	-0.0140	
281.20000	-0.0142	
281.40000	-0.0137	
281.60000	-0.0133	
281.80000	-0.0133	
282.00000	-0.0128	
282.20000	-0.0133	
282.40000	-0.0133	
282.60000	-0.0134	
282.80000	-0.0130	
283.00000	-0.0131	
283.20000	-0.0128	
283.40000	-0.0127	
283.60000	-0.0128	
283.80000	-0.0127	
284.00000	-0.0128	
284.20000	-0.0125	
284.40000	-0.0125	
284.60000	-0.0128	
284.80000	-0.0125	
285.00000	-0.0131	
285.20000	-0.0130	
285.40000	-0.0130	
285.60000	-0.0130	
285.80000	-0.0131	
286.00000	-0.0134	
286.20000	-0.0140	
286.40000	-0.0145	
286.60000	-0.0143	
286.80000	-0.0148	
287.00000	-0.0151	
287.20000	-0.0156	
287.40000	-0.0156	
287.60000	-0.0162	
287.80000	-0.0165	
288.00000	-0.0163	
288.20000	-0.0172	
288.40000	-0.0171	
288.60000	-0.0174	
288.80000	-0.0179	
289.00000	-0.0183	
289.20000	-0.0186	
289.40000	-0.0191	
289.60000	-0.0192	
289.80000	-0.0197	
290.00000	-0.0203	
290.20000	-0.0204	
290.40000	-0.0203	
290.60000	-0.0198	
290.80000	-0.0200	
291.00000	-0.0204	
291.20000	-0.0203	
291.40000	-0.0208	
291.60000	-0.0204	
291.80000	-0.0208	
292.00000	-0.0203	
292.20000	-0.0204	
292.40000	-0.0204	
292.60000	-0.0200	
292.80000	-0.0203	
293.00000	-0.0198	
293.20000	-0.0195	
293.40000	-0.0192	
293.60000	-0.0189	
293.80000	-0.0188	
294.00000	-0.0183	
294.20000	-0.0182	
294.40000	-0.0177	
294.60000	-0.0179	
294.80000	-0.0177	
295.00000	-0.0177	
295.20000	-0.0171	
295.40000	-0.0168	
295.60000	-0.0169	
295.80000	-0.0163	
296.00000	-0.0160	
296.20000	-0.0157	
296.40000	-0.0154	
296.60000	-0.0153	
296.80000	-0.0151	
297.00000	-0.0146	
297.20000	-0.0148	
297.40000	-0.0146	
297.60000	-0.0143	
297.80000	-0.0143	
298.00000	-0.0137	
298.20000	-0.0134	
298.40000	-0.0131	
298.60000	-0.0130	
298.80000	-0.0131	
299.00000	-0.0128	
299.20000	-0.0130	
299.40000	-0.0127	
299.60000	-0.0127	
299.80000	-0.0125	
300.00000	-0.0125	
300.20000	-0.0121	
300.40000	-0.0122	
300.60000	-0.0127	
300.80000	-0.0124	
301.00000	-0.0124	
301.20000	-0.0124	
301.40000	-0.0125	
301.60000	-0.0125	
301.80000	-0.0128	
302.00000	-0.0130	
302.20000	-0.0128	
302.40000	-0.0127	
302.60000	-0.0130	
302.80000	-0.0134	
303.00000	-0.0137	
303.20000	-0.0142	
303.40000	-0.0143	
303.60000	-0.0146	
303.80000	-0.0148	
304.00000	-0.0150	
304.20000	-0.0154	
304.40000	-0.0157	
304.60000	-0.0162	
304.80000	-0.0165	
305.00000	-0.0166	
305.20000	-0.0171	
305.40000	-0.0174	
305.60000	-0.0179	
305.80000	-0.0183	
306.00000	-0.0186	
306.20000	-0.0189	
306.40000	-0.0191	
306.60000	-0.0197	
306.80000	-0.0197	
307.00000	-0.0198	
307.20000	-0.0197	
307.40000	-0.0198	
307.60000	-0.0198	
307.80000	-0.0200	
308.00000	-0.0200	
308.20000	-0.0204	
308.40000	-0.0208	
308.60000	-0.0203	
308.80000	-0.0203	
309.00000	-0.0197	
309.20000	-0.0198	
309.40000	-0.0200	
309.60000	-0.0195	
309.80000	-0.0194	
310.00000	-0.0194	
310.20000	-0.0191	
310.40000	-0.0188	
310.60000	-0.0185	
310.80000	-0.0182	
311.00000	-0.0182	
311.20000	-0.0174	
311.40000	-0.0171	
311.60000	-0.0169	
311.80000	-0.0168	
312.00000	-0.0165	
312.20000	-0.0165	
312.40000	-0.0162	
312.60000	-0.0160	
312.80000	-0.0151	
313.00000	-0.0151	
313.20000	-0.0145	
313.40000	-0.0145	
313.60000	-0.0142	
313.80000	-0.0142	
314.00000	-0.0140	
314.20000	-0.0143	
314.40000	-0.0140	
314.60000	-0.0134	
314.80000	-0.0134	
315.00000	-0.0131	
315.20000	-0.0125	
315.40000	-0.0124	
315.60000	-0.0125	
315.80000	-0.0127	
316.00000	-0.0122	
316.20000	-0.0122	
316.40000	-0.0122	
316.60000	-0.0119	
316.80000	-0.0116	
317.00000	-0.0119	
317.20000	-0.0119	
317.40000	-0.0116	
317.60000	-0.0116	
317.80000	-0.0121	
318.00000	-0.0119	
318.20000	-0.0122	
318.40000	-0.0125	
318.60000	-0.0125	
318.80000	-0.0122	
319.00000	-0.0127	
319.20000	-0.0127	
319.40000	-0.0131	
319.60000	-0.0136	
319.80000	-0.0140	
320.00000	-0.0142	
320.20000	-0.0145	
320.40000	-0.0146	
320.60000	-0.0148	
320.80000	-0.0150	
321.00000	-0.0153	
321.20000	-0.0156	
321.40000	-0.0160	
321.60000	-0.0162	
321.80000	-0.0168	
322.00000	-0.0169	
322.20000	-0.0174	
322.40000	-0.0175	
322.60000	-0.0183	
322.80000	-0.0186	
323.00000	-0.0186	
323.20000	-0.0189	
323.40000	-0.0194	
323.60000	-0.0192	
323.80000	-0.0191	
324.00000	-0.0189	
324.20000	-0.0191	
324.40000	-0.0189	
324.60000	-0.0191	
324.80000	-0.0195	
325.00000	-0.0194	
325.20000	-0.0194	
325.40000	-0.0195	
325.60000	-0.0192	
325.80000	-0.0191	
326.00000	-0.0194	
326.20000	-0.0191	
326.40000	-0.0191	
326.60000	-0.0186	
326.80000	-0.0183	
327.00000	-0.0175	
327.20000	-0.0174	
327.40000	-0.0171	
327.60000	-0.0169	
327.80000	-0.0168	
328.00000	-0.0165	
328.20000	-0.0163	
328.40000	-0.0160	
328.60000	-0.0163	
328.80000	-0.0162	
329.00000	-0.0157	
329.20000	-0.0156	
329.40000	-0.0153	
329.60000	-0.0151	
329.80000	-0.0145	
330.00000	-0.0145	
330.20000	-0.0143	
330.40000	-0.0142	
330.60000	-0.0137	
330.80000	-0.0137	
331.00000	-0.0137	
331.20000	-0.0136	
331.40000	-0.0133	
331.60000	-0.0128	
331.80000	-0.0127	
332.00000	-0.0125	
332.20000	-0.0128	
332.40000	-0.0127	
332.60000	-0.0125	
332.80000	-0.0124	
333.00000	-0.0122	
333.20000	-0.0121	
333.40000	-0.0116	
333.60000	-0.0114	
333.80000	-0.0114	
334.00000	-0.0116	
334.20000	-0.0113	
334.40000	-0.0113	
334.60000	-0.0116	
334.80000	-0.0119	
335.00000	-0.0116	
335.20000	-0.0121	
335.40000	-0.0121	
335.60000	-0.0125	
335.80000	-0.0122	
336.00000	-0.0128	
336.20000	-0.0131	
336.40000	-0.0136	
336.60000	-0.0136	
336.80000	-0.0137	
337.00000	-0.0142	
337.20000	-0.0146	
337.40000	-0.0145	
337.60000	-0.0151	
337.80000	-0.0154	
338.00000	-0.0154	
338.20000	-0.0160	
338.40000	-0.0162	
338.60000	-0.0166	
338.80000	-0.0171	
339.00000	-0.0174	
339.20000	-0.0177	
339.40000	-0.0182	
339.60000	-0.0183	
339.80000	-0.0189	
340.00000	-0.0191	
340.20000	-0.0192	
340.40000	-0.0189	
340.60000	-0.0188	
340.80000	-0.0191	
341.00000	-0.0188	
341.20000	-0.0189	
341.40000	-0.0191	
341.60000	-0.0192	
341.80000	-0.0191	
342.00000	-0.0191	
342.20000	-0.0191	
342.40000	-0.0191	
342.60000	-0.0189	
342.80000	-0.0189	
343.00000	-0.0189	
343.20000	-0.0186	
343.40000	-0.0185	
343.60000	-0.0183	
343.80000	-0.0182	
344.00000	-0.0179	
344.20000	-0.0174	
344.40000	-0.0172	
344.60000	-0.0172	
344.80000	-0.0172	
345.00000	-0.0166	
345.20000	-0.0166	
345.40000	-0.0163	
345.60000	-0.0165	
345.80000	-0.0162	
346.00000	-0.0160	
346.20000	-0.0157	
346.40000	-0.0153	
346.60000	-0.0151	
346.80000	-0.0148	
347.00000	-0.0145	
347.20000	-0.0142	
347.40000	-0.0142	
347.60000	-0.0137	
347.80000	-0.0134	
348.00000	-0.0134	
348.20000	-0.0130	
348.40000	-0.0125	
348.60000	-0.0122	
348.80000	-0.0124	
349.00000	-0.0127	
349.20000	-0.0125	
349.40000	-0.0124	
349.60000	-0.0124	
349.80000	-0.0121	
350.00000	-0.0122	
350.20000	-0.0119	
350.40000	-0.0121	
350.60000	-0.0121	
350.80000	-0.0119	
351.00000	-0.0119	
351.20000	-0.0119	
351.40000	-0.0121	
351.60000	-0.0121	
351.80000	-0.0121	
352.00000	-0.0125	
352.20000	-0.0125	
352.40000	-0.0127	
352.60000	-0.0131	
352.80000	-0.0133	
353.00000	-0.0140	
353.20000	-0.0143	
353.40000	-0.0145	
353.60000	-0.0145	
353.80000	-0.0148	
354.00000	-0.0150	
354.20000	-0.0153	
354.40000	-0.0154	
354.60000	-0.0157	
354.80000	-0.0162	
355.00000	-0.0168	
355.20000	-0.0171	
355.40000	-0.0172	
355.60000	-0.0175	
355.80000	-0.0185	
356.00000	-0.0188	
356.20000	-0.0191	
356.40000	-0.0192	
356.60000	-0.0197	
356.80000	-0.0197	
357.00000	-0.0200	
357.20000	-0.0200	
357.40000	-0.0198	
357.60000	-0.0195	
357.80000	-0.0195	
358.00000	-0.0200	
358.20000	-0.0198	
358.40000	-0.0198	
358.60000	-0.0200	
358.80000	-0.0197	
359.00000	-0.0198	
359.20000	-0.0197	
359.40000	-0.0197	
359.60000	-0.0197	
359.80000	-0.0195	
360.00000	-0.0192	
360.20000	-0.0191	
360.40000	-0.0189	
360.60000	-0.0186	
360.80000	-0.0185	
361.00000	-0.0183	
361.20000	-0.0182	
361.40000	-0.0174	
361.60000	-0.0172	
361.80000	-0.0168	
362.00000	-0.0168	
362.20000	-0.0165	
362.40000	-0.0163	
362.60000	-0.0162	
362.80000	-0.0160	
363.00000	-0.0154	
363.20000	-0.0154	
363.40000	-0.0150	
363.60000	-0.0148	
363.80000	-0.0143	
364.00000	-0.0145	
364.20000	-0.0143	
364.40000	-0.0140	
364.60000	-0.0140	
364.80000	-0.0137	
365.00000	-0.0133	
365.20000	-0.0127	
365.40000	-0.0127	
365.60000	-0.0128	
365.80000	-0.0131	
366.00000	-0.0130	
366.20000	-0.0128	
366.40000	-0.0127	
366.60000	-0.0125	
366.80000	-0.0128	
367.00000	-0.0128	
367.20000	-0.0125	
367.40000	-0.0127	
367.60000	-0.0124	
367.80000	-0.0127	
368.00000	-0.0128	
368.20000	-0.0127	
368.40000	-0.0130	
368.60000	-0.0134	
368.80000	-0.0133	
369.00000	-0.0133	
369.20000	-0.0131	
369.40000	-0.0137	
369.60000	-0.0142	
369.80000	-0.0145	
370.00000	-0.0151	
370.20000	-0.0153	
370.40000	-0.0154	
370.60000	-0.0157	
370.80000	-0.0165	
371.00000	-0.0168	
371.20000	-0.0172	
371.40000	-0.0172	
371.60000	-0.0175	
371.80000	-0.0177	
372.00000	-0.0183	
372.20000	-0.0183	
372.40000	-0.0188	
372.60000	-0.0191	
372.80000	-0.0197	
373.00000	-0.0198	
373.20000	-0.0203	
373.40000	-0.0206	
373.60000	-0.0206	
373.80000	-0.0206	
374.00000	-0.0208	
374.20000	-0.0208	
374.40000	-0.0208	
374.60000	-0.0209	
374.80000	-0.0209	
375.00000	-0.0212	
375.20000	-0.0206	
375.40000	-0.0203	
375.60000	-0.0204	
375.80000	-0.0203	
376.00000	-0.0203	
376.20000	-0.0204	
376.40000	-0.0200	
376.60000	-0.0198	
376.80000	-0.0195	
377.00000	-0.0194	
377.20000	-0.0194	
377.40000	-0.0189	
377.60000	-0.0186	
377.80000	-0.0188	
378.00000	-0.0182	
378.20000	-0.0177	
378.40000	-0.0175	
378.60000	-0.0175	
378.80000	-0.0171	
379.00000	-0.0169	
379.20000	-0.0171	
379.40000	-0.0163	
379.60000	-0.0160	
379.80000	-0.0160	
380.00000	-0.0154	
380.20000	-0.0156	
380.40000	-0.0154	
380.60000	-0.0151	
380.80000	-0.0151	
381.00000	-0.0150	
381.20000	-0.0148	
381.40000	-0.0145	
381.60000	-0.0143	
381.80000	-0.0137	
382.00000	-0.0131	
382.20000	-0.0134	
382.40000	-0.0133	
382.60000	-0.0131	
382.80000	-0.0131	
383.00000	-0.0130	
383.20000	-0.0130	
383.40000	-0.0127	
383.60000	-0.0127	
383.80000	-0.0128	
384.00000	-0.0125	
384.20000	-0.0125	
384.40000	-0.0127	
384.60000	-0.0130	
384.80000	-0.0130	
385.00000	-0.0131	
385.20000	-0.0134	
385.40000	-0.0134	
385.60000	-0.0134	
385.80000	-0.0134	
386.00000	-0.0140	
386.20000	-0.0142	
386.40000	-0.0146	
386.60000	-0.0148	
386.80000	-0.0151	
387.00000	-0.0153	
387.20000	-0.0156	
387.40000	-0.0157	
387.60000	-0.0162	
387.80000	-0.0166	
388.00000	-0.0168	
388.20000	-0.0171	
388.40000	-0.0175	
388.60000	-0.0177	
388.80000	-0.0185	
389.00000	-0.0188	
389.20000	-0.0188	
389.40000	-0.0191	
389.60000	-0.0197	
389.80000	-0.0198	
390.00000	-0.0206	
390.20000	-0.0208	
390.40000	-0.0204	
390.60000	-0.0204	
390.80000	-0.0206	
391.00000	-0.0204	
391.20000	-0.0206	
391.40000	-0.0206	
391.60000	-0.0208	
391.80000	-0.0204	
392.00000	-0.0209	
392.20000	-0.0208	
392.40000	-0.0203	
392.60000	-0.0206	
392.80000	-0.0208	
393.00000	-0.0200	
393.20000	-0.0200	
393.40000	-0.0197	
393.60000	-0.0195	
393.80000	-0.0191	
394.00000	-0.0192	
394.20000	-0.0191	
394.40000	-0.0189	
394.60000	-0.0189	
394.80000	-0.0188	
395.00000	-0.0183	
395.20000	-0.0182	
395.40000	-0.0177	
395.60000	-0.0174	
395.80000	-0.0177	
396.00000	-0.0172	
396.20000	-0.0166	
396.40000	-0.0165	
396.60000	-0.0162	
396.80000	-0.0162	
397.00000	-0.0157	
397.20000	-0.0156	
397.40000	-0.0157	
397.60000	-0.0151	
397.80000	-0.0151	
398.00000	-0.0151	
398.20000	-0.0148	
398.40000	-0.0142	
398.60000	-0.0140	
398.80000	-0.0142	
399.00000	-0.0142	
399.20000	-0.0137	
399.40000	-0.0136	
399.60000	-0.0137	
399.80000	-0.0134	
400.00000	-0.0136	
400.20000	-0.0136	
400.40000	-0.0133	
400.60000	-0.0134	
400.80000	-0.0134	
401.00000	-0.0136	
401.20000	-0.0136	
401.40000	-0.0136	
401.60000	-0.0137	
401.80000	-0.0140	
402.00000	-0.0140	
402.20000	-0.0142	
402.40000	-0.0142	
402.60000	-0.0143	
402.80000	-0.0150	
403.00000	-0.0151	
403.20000	-0.0154	
403.40000	-0.0156	
403.60000	-0.0160	
403.80000	-0.0163	
404.00000	-0.0166	
404.20000	-0.0168	
404.40000	-0.0171	
404.60000	-0.0172	
404.80000	-0.0177	
405.00000	-0.0177	
405.20000	-0.0183	
405.40000	-0.0188	
405.60000	-0.0191	
405.80000	-0.0194	
406.00000	-0.0194	
406.20000	-0.0197	
406.40000	-0.0206	
406.60000	-0.0206	
406.80000	-0.0208	
407.00000	-0.0211	
407.20000	-0.0208	
407.40000	-0.0208	
407.60000	-0.0209	
407.80000	-0.0209	
408.00000	-0.0204	
408.20000	-0.0208	
408.40000	-0.0211	
408.60000	-0.0211	
408.80000	-0.0206	
409.00000	-0.0206	
409.20000	-0.0208	
409.40000	-0.0206	
409.60000	-0.0203	
409.80000	-0.0203	
410.00000	-0.0197	
410.20000	-0.0195	
410.40000	-0.0192	
410.60000	-0.0191	
410.80000	-0.0186	
411.00000	-0.0188	
411.20000	-0.0185	
411.40000	-0.0179	
411.60000	-0.0182	
411.80000	-0.0177	
412.00000	-0.0175	
412.20000	-0.0172	
412.40000	-0.0171	
412.60000	-0.0169	
412.80000	-0.0166	
413.00000	-0.0165	
413.20000	-0.0154	
413.40000	-0.0156	
413.60000	-0.0153	
413.80000	-0.0150	
414.00000	-0.0150	
414.20000	-0.0148	
414.40000	-0.0145	
414.60000	-0.0146	
414.80000	-0.0145	
415.00000	-0.0142	
415.20000	-0.0136	
415.40000	-0.0134	
415.60000	-0.0134	
415.80000	-0.0140	
416.00000	-0.0134	
416.20000	-0.0133	
416.40000	-0.0131	
416.60000	-0.0131	
416.80000	-0.0131	
417.00000	-0.0128	
417.20000	-0.0127	
417.40000	-0.0125	
417.60000	-0.0127	
417.80000	-0.0127	
418.00000	-0.0128	
418.20000	-0.0130	
418.40000	-0.0133	
418.60000	-0.0133	
418.80000	-0.0136	
419.00000	-0.0136	
419.20000	-0.0136	
419.40000	-0.0142	
419.60000	-0.0145	
419.80000	-0.0146	
420.00000	-0.0151	
420.20000	-0.0151	
420.40000	-0.0156	
420.60000	-0.0156	
420.80000	-0.0162	
421.00000	-0.0165	
421.20000	-0.0168	
421.40000	-0.0174	
421.60000	-0.0172	
421.80000	-0.0174	
422.00000	-0.0182	
422.20000	-0.0188	
422.40000	-0.0188	
422.60000	-0.0192	
422.80000	-0.0192	
423.00000	-0.0194	
423.20000	-0.0198	
423.40000	-0.0203	
423.60000	-0.0204	
423.80000	-0.0200	
424.00000	-0.0200	
424.20000	-0.0200	
424.40000	-0.0198	
424.60000	-0.0200	
424.80000	-0.0204	
425.00000	-0.0204	
425.20000	-0.0206	
425.40000	-0.0203	
425.60000	-0.0200	
425.80000	-0.0198	
426.00000	-0.0200	
426.20000	-0.0203	
426.40000	-0.0198	
426.60000	-0.0195	
426.80000	-0.0194	
427.00000	-0.0192	
427.20000	-0.0189	
427.40000	-0.0186	
427.60000	-0.0185	
427.80000	-0.0182	
428.00000	-0.0179	
428.20000	-0.0175	
428.40000	-0.0171	
428.60000	-0.0174	
428.80000	-0.0171	
429.00000	-0.0168	
429.20000	-0.0166	
429.40000	-0.0165	
429.60000	-0.0162	
429.80000	-0.0157	
430.00000	-0.0154	
430.20000	-0.0151	
430.40000	-0.0150	
430.60000	-0.0146	
430.80000	-0.0146	
431.00000	-0.0145	
431.20000	-0.0143	
431.40000	-0.0140	
431.60000	-0.0134	
431.80000	-0.0133	
432.00000	-0.0130	
432.20000	-0.0131	
432.40000	-0.0133	
432.60000	-0.0130	
432.80000	-0.0128	
433.00000	-0.0130	
433.20000	-0.0128	
433.40000	-0.0124	
433.60000	-0.0124	
433.80000	-0.0122	
434.00000	-0.0119	
434.20000	-0.0127	
434.40000	-0.0122	
434.60000	-0.0122	
434.80000	-0.0125	
435.00000	-0.0128	
435.20000	-0.0125	
435.40000	-0.0127	
435.60000	-0.0128	
435.80000	-0.0125	
436.00000	-0.0131	
436.20000	-0.0133	
436.40000	-0.0137	
436.60000	-0.0137	
436.80000	-0.0143	
437.00000	-0.0146	
437.20000	-0.0146	
437.40000	-0.0151	
437.60000	-0.0153	
437.80000	-0.0157	
438.00000	-0.0163	
438.20000	-0.0166	
438.40000	-0.0169	
438.60000	-0.0171	
438.80000	-0.0177	
439.00000	-0.0183	
439.20000	-0.0186	
439.40000	-0.0186	
439.60000	-0.0192	
439.80000	-0.0197	
440.00000	-0.0197	
440.20000	-0.0197	
440.40000	-0.0198	
440.60000	-0.0198	
440.80000	-0.0200	
441.00000	-0.0197	
441.20000	-0.0197	
441.40000	-0.0198	
441.60000	-0.0197	
441.80000	-0.0198	
442.00000	-0.0200	
442.20000	-0.0197	
442.40000	-0.0195	
442.60000	-0.0195	
442.80000	-0.0197	
443.00000	-0.0194	
443.20000	-0.0191	
443.40000	-0.0192	
443.60000	-0.0188	
443.80000	-0.0182	
444.00000	-0.0186	
444.20000	-0.0182	
444.40000	-0.0179	
444.60000	-0.0175	
444.80000	-0.0175	
445.00000	-0.0174	
445.20000	-0.0174	
445.40000	-0.0171	
445.60000	-0.0169	
445.80000	-0.0171	
446.00000	-0.0169	
446.20000	-0.0171	
446.40000	-0.0165	
446.60000	-0.0165	
446.80000	-0.0162	
447.00000	-0.0156	
447.20000	-0.0154	
447.40000	-0.0154	
447.60000	-0.0153	
447.80000	-0.0151	
448.00000	-0.0145	
448.20000	-0.0143	
448.40000	-0.0136	
448.60000	-0.0136	
448.80000	-0.0136	
449.00000	-0.0137	
449.20000	-0.0136	
449.40000	-0.0133	
449.60000	-0.0130	
449.80000	-0.0130	
450.00000	-0.0128	
450.20000	-0.0128	
450.40000	-0.0127	
450.60000	-0.0127	
450.80000	-0.0124	
451.00000	-0.0122	
451.20000	-0.0124	
451.40000	-0.0125	
451.60000	-0.0124	
451.80000	-0.0130	
452.00000	-0.0128	
452.20000	-0.0128	
452.40000	-0.0130	
452.60000	-0.0133	
452.80000	-0.0133	
453.00000	-0.0142	
453.20000	-0.0142	
453.40000	-0.0145	
453.60000	-0.0146	
453.80000	-0.0146	
454.00000	-0.0151	
454.20000	-0.0153	
454.40000	-0.0156	
454.60000	-0.0160	
454.80000	-0.0162	
455.00000	-0.0169	
455.20000	-0.0172	
455.40000	-0.0175	
455.60000	-0.0177	
455.80000	-0.0186	
456.00000	-0.0188	
456.20000	-0.0191	
456.40000	-0.0195	
456.60000	-0.0198	
456.80000	-0.0203	
457.00000	-0.0203	
457.20000	-0.0198	
457.40000	-0.0198	
457.60000	-0.0204	
457.80000	-0.0197	
458.00000	-0.0200	
458.20000	-0.0204	
458.40000	-0.0206	
458.60000	-0.0198	
458.80000	-0.0198	
459.00000	-0.0197	
459.20000	-0.0198	
459.40000	-0.0203	
459.60000	-0.0197	
459.80000	-0.0195	
460.00000	-0.0194	
460.20000	-0.0192	
460.40000	-0.0191	
460.60000	-0.0186	
460.80000	-0.0189	
461.00000	-0.0183	
461.20000	-0.0183	
461.40000	-0.0177	
461.60000	-0.0179	
461.80000	-0.0171	
462.00000	-0.0171	
462.20000	-0.0171	
462.40000	-0.0168	
462.60000	-0.0165	
462.80000	-0.0166	
463.00000	-0.0162	
463.20000	-0.0156	
463.40000	-0.0153	
463.60000	-0.0151	
463.80000	-0.0148	
464.00000	-0.0151	
464.20000	-0.0146	
464.40000	-0.0145	
464.60000	-0.0142	
464.80000	-0.0140	
465.00000	-0.0134	
465.20000	-0.0131	
465.40000	-0.0130	
465.60000	-0.0127	
465.80000	-0.0133	
466.00000	-0.0133	
466.20000	-0.0131	
466.40000	-0.0131	
466.60000	-0.0128	
466.80000	-0.0128	
467.00000	-0.0124	
467.20000	-0.0124	
467.40000	-0.0124	
467.60000	-0.0125	
467.80000	-0.0122	
468.00000	-0.0124	
468.20000	-0.0125	
468.40000	-0.0128	
468.60000	-0.0128	
468.80000	-0.0130	
469.00000	-0.0128	
469.20000	-0.0130	
469.40000	-0.0134	
469.60000	-0.0136	
469.80000	-0.0142	
470.00000	-0.0143	
470.20000	-0.0145	
470.40000	-0.0146	
470.60000	-0.0148	
470.80000	-0.0150	
471.00000	-0.0156	
471.20000	-0.0160	
471.40000	-0.0162	
471.60000	-0.0165	
471.80000	-0.0171	
472.00000	-0.0171	
472.20000	-0.0175	
472.40000	-0.0182	
472.60000	-0.0185	
472.80000	-0.0189	
473.00000	-0.0191	
473.20000	-0.0195	
473.40000	-0.0198	
473.60000	-0.0197	
473.80000	-0.0198	
474.00000	-0.0197	
474.20000	-0.0197	
474.40000	-0.0197	
474.60000	-0.0197	
474.80000	-0.0195	
475.00000	-0.0200	
475.20000	-0.0195	
475.40000	-0.0195	
475.60000	-0.0194	
475.80000	-0.0195	
476.00000	-0.0198	
476.20000	-0.0197	
476.40000	-0.0197	
476.60000	-0.0195	
476.80000	-0.0195	
477.00000	-0.0191	
477.20000	-0.0189	
477.40000	-0.0185	
477.60000	-0.0185	
477.80000	-0.0177	
478.00000	-0.0175	
478.20000	-0.0174	
478.40000	-0.0171	
478.60000	-0.0169	
478.80000	-0.0169	
479.00000	-0.0165	
479.20000	-0.0165	
479.40000	-0.0160	
479.60000	-0.0156	
479.80000	-0.0157	
480.00000	-0.0151	
480.20000	-0.0151	
480.40000	-0.0150	
480.60000	-0.0145	
480.80000	-0.0146	
481.00000	-0.0143	
481.20000	-0.0143	
481.40000	-0.0136	
481.60000	-0.0134	
481.80000	-0.0130	
482.00000	-0.0130	
482.20000	-0.0131	
482.40000	-0.0134	
482.60000	-0.0134	
482.80000	-0.0133	
483.00000	-0.0131	
483.20000	-0.0128	
483.40000	-0.0125	
483.60000	-0.0125	
483.80000	-0.0125	
484.00000	-0.0124	
484.20000	-0.0122	
484.40000	-0.0122	
484.60000	-0.0122	
484.80000	-0.0127	
485.00000	-0.0125	
485.20000	-0.0122	
485.40000	-0.0127	
485.60000	-0.0127	
485.80000	-0.0121	
486.00000	-0.0128	
486.20000	-0.0131	
486.40000	-0.0134	
486.60000	-0.0136	
486.80000	-0.0140	
487.00000	-0.0140	
487.20000	-0.0142	
487.40000	-0.0146	
487.60000	-0.0146	
487.80000	-0.0150	
488.00000	-0.0151	
488.20000	-0.0156	
488.40000	-0.0157	
488.60000	-0.0162	
488.80000	-0.0165	
489.00000	-0.0166	
489.20000	-0.0171	
489.40000	-0.0174	
489.60000	-0.0177	
489.80000	-0.0183	
490.00000	-0.0188	
490.20000	-0.0192	
490.40000	-0.0188	
490.60000	-0.0189	
490.80000	-0.0189	
491.00000	-0.0191	
491.20000	-0.0189	
491.40000	-0.0194	
491.60000	-0.0192	
491.80000	-0.0195	
492.00000	-0.0192	
492.20000	-0.0191	
492.40000	-0.0194	
492.60000	-0.0192	
492.80000	-0.0192	
493.00000	-0.0191	
493.20000	-0.0186	
493.40000	-0.0185	
493.60000	-0.0182	
493.80000	-0.0182	
494.00000	-0.0179	
494.20000	-0.0175	
494.40000	-0.0171	
494.60000	-0.0171	
494.80000	-0.0175	
495.00000	-0.0169	
495.20000	-0.0166	
495.40000	-0.0166	
495.60000	-0.0160	
495.80000	-0.0160	
496.00000	-0.0157	
496.20000	-0.0154	
496.40000	-0.0153	
496.60000	-0.0146	
496.80000	-0.0143	
497.00000	-0.0143	
497.20000	-0.0143	
497.40000	-0.0142	
497.60000	-0.0136	
497.80000	-0.0140	
498.00000	-0.0136	
498.20000	-0.0131	
498.40000	-0.0127	
498.60000	-0.0124	
498.80000	-0.0124	
499.00000	-0.0127	
499.20000	-0.0127	
499.40000	-0.0121	
499.60000	-0.0119	
499.80000	-0.0121	
500.00000	-0.0114	
500.20000	-0.0116	
500.40000	-0.0114	
500.60000	-0.0111	
500.80000	-0.0111	
501.00000	-0.0111	
501.20000	-0.0114	
501.40000	-0.0113	
501.60000	-0.0114	
501.80000	-0.0119	
502.00000	-0.0122	
502.20000	-0.0122	
502.40000	-0.0121	
502.60000	-0.0125	
502.80000	-0.0128	
503.00000	-0.0131	
503.20000	-0.0136	
503.40000	-0.0134	
503.60000	-0.0136	
503.80000	-0.0142	
504.00000	-0.0142	
504.20000	-0.0145	
504.40000	-0.0150	
504.60000	-0.0153	
504.80000	-0.0162	
505.00000	-0.0160	
505.20000	-0.0168	
505.40000	-0.0169	
505.60000	-0.0169	
505.80000	-0.0175	
506.00000	-0.0183	
506.20000	-0.0182	
506.40000	-0.0185	
506.60000	-0.0191	
506.80000	-0.0195	
507.00000	-0.0194	
507.20000	-0.0192	
507.40000	-0.0194	
507.60000	-0.0192	
507.80000	-0.0192	
508.00000	-0.0194	
508.20000	-0.0195	
508.40000	-0.0197	
508.60000	-0.0197	
508.80000	-0.0195	
509.00000	-0.0195	
509.20000	-0.0194	
509.40000	-0.0194	
509.60000	-0.0192	
509.80000	-0.0189	
510.00000	-0.0189	
510.20000	-0.0186	
510.40000	-0.0182	
510.60000	-0.0177	
510.80000	-0.0177	
511.00000	-0.0174	
511.20000	-0.0171	
511.40000	-0.0168	
511.60000	-0.0168	
511.80000	-0.0165	
512.00000	-0.0163	
512.20000	-0.0163	
512.40000	-0.0162	
512.60000	-0.0163	
512.80000	-0.0156	
513.00000	-0.0154	
513.20000	-0.0151	
513.40000	-0.0151	
513.60000	-0.0148	
513.80000	-0.0146	
514.00000	-0.0146	
514.20000	-0.0143	
514.40000	-0.0145	
514.60000	-0.0145	
514.80000	-0.0137	
515.00000	-0.0134	
515.20000	-0.0131	
515.40000	-0.0133	
515.60000	-0.0130	
515.80000	-0.0133	
516.00000	-0.0133	
516.20000	-0.0128	
516.40000	-0.0127	
516.60000	-0.0125	
516.80000	-0.0124	
517.00000	-0.0124	
517.20000	-0.0124	
517.40000	-0.0124	
517.60000	-0.0122	
517.80000	-0.0125	
518.00000	-0.0122	
518.20000	-0.0125	
518.40000	-0.0125	
518.60000	-0.0131	
518.80000	-0.0130	
519.00000	-0.0130	
519.20000	-0.0131	
519.40000	-0.0136	
519.60000	-0.0136	
519.80000	-0.0145	
520.00000	-0.0145	
520.20000	-0.0150	
520.40000	-0.0150	
520.60000	-0.0153	
520.80000	-0.0156	
521.00000	-0.0160	
521.20000	-0.0165	
521.40000	-0.0168	
521.60000	-0.0171	
521.80000	-0.0175	
522.00000	-0.0182	
522.20000	-0.0186	
522.40000	-0.0192	
522.60000	-0.0203	
522.80000	-0.0204	
523.00000	-0.0209	
523.20000	-0.0217	
523.40000	-0.0221	
523.60000	-0.0227	
523.80000	-0.0232	
524.00000	-0.0237	
524.20000	-0.0240	
524.40000	-0.0250	
524.60000	-0.0258	
524.80000	-0.0264	
525.00000	-0.0278	
525.20000	-0.0284	
525.40000	-0.0301	
525.60000	-0.0305	
525.80000	-0.0316	
526.00000	-0.0323	
526.20000	-0.0339	
526.40000	-0.0348	
526.60000	-0.0354	
526.80000	-0.0359	
527.00000	-0.0372	
527.20000	-0.0375	
527.40000	-0.0383	
527.60000	-0.0389	
527.80000	-0.0394	
528.00000	-0.0398	
528.20000	-0.0403	
528.40000	-0.0407	
528.60000	-0.0415	
528.80000	-0.0418	
529.00000	-0.0426	
529.20000	-0.0429	
529.40000	-0.0432	
529.60000	-0.0433	
529.80000	-0.0438	
530.00000	-0.0439	
530.20000	-0.0444	
530.40000	-0.0446	
530.60000	-0.0450	
530.80000	-0.0449	
531.00000	-0.0453	
531.20000	-0.0455	
531.40000	-0.0453	
531.60000	-0.0453	
531.80000	-0.0450	
532.00000	-0.0452	
532.20000	-0.0447	
532.40000	-0.0452	
532.60000	-0.0449	
532.80000	-0.0444	
533.00000	-0.0436	
533.20000	-0.0421	
533.40000	-0.0404	
533.60000	-0.0383	
533.80000	-0.0357	
534.00000	-0.0328	
534.20000	-0.0299	
534.40000	-0.0267	
534.60000	-0.0229	
534.80000	-0.0191	
535.00000	-0.0151	
535.20000	-0.0114	
535.40000	-0.0076	
535.60000	-0.0035	
535.80000	 0.0008	
536.00000	 0.0047	
536.20000	 0.0082	
536.40000	 0.0119	
536.60000	 0.0156	
536.80000	 0.0188	
537.00000	 0.0226	
537.20000	 0.0256	
537.40000	 0.0291	
537.60000	 0.0325	
537.80000	 0.0360	
538.00000	 0.0394	
538.20000	 0.0423	
538.40000	 0.0456	
538.60000	 0.0481	
538.80000	 0.0508	
539.00000	 0.0536	
539.20000	 0.0565	
539.40000	 0.0589	
539.60000	 0.0620	
539.80000	 0.0647	
540.00000	 0.0673	
540.20000	 0.0706	
540.40000	 0.0739	
540.60000	 0.0771	
540.80000	 0.0803	
541.00000	 0.0832	
541.20000	 0.0856	
541.40000	 0.0882	
541.60000	 0.0900	
541.80000	 0.0916	
542.00000	 0.0928	
542.20000	 0.0940	
542.40000	 0.0951	
542.60000	 0.0949	
542.80000	 0.0946	
543.00000	 0.0946	
543.20000	 0.0932	
543.40000	 0.0922	
543.60000	 0.0908	
543.80000	 0.0890	
544.00000	 0.0868	
544.20000	 0.0844	
544.40000	 0.0818	
544.60000	 0.0787	
544.80000	 0.0754	
545.00000	 0.0725	
545.20000	 0.0685	
545.40000	 0.0656	
545.60000	 0.0623	
545.80000	 0.0589	
546.00000	 0.0555	
546.20000	 0.0529	
546.40000	 0.0502	
546.60000	 0.0478	
546.80000	 0.0452	
547.00000	 0.0432	
547.20000	 0.0415	
547.40000	 0.0397	
547.60000	 0.0394	
547.80000	 0.0385	
548.00000	 0.0380	
548.20000	 0.0380	
548.40000	 0.0383	
548.60000	 0.0388	
548.80000	 0.0392	
549.00000	 0.0394	
549.20000	 0.0400	
549.40000	 0.0407	
549.60000	 0.0418	
549.80000	 0.0427	
550.00000	 0.0439	
550.20000	 0.0452	
550.40000	 0.0464	
550.60000	 0.0479	
550.80000	 0.0497	
551.00000	 0.0511	
551.20000	 0.0525	
551.40000	 0.0540	
551.60000	 0.0554	
551.80000	 0.0569	
552.00000	 0.0586	
552.20000	 0.0600	
552.40000	 0.0618	
552.60000	 0.0635	
552.80000	 0.0648	
553.00000	 0.0656	
553.20000	 0.0671	
553.40000	 0.0682	
553.60000	 0.0696	
553.80000	 0.0705	
554.00000	 0.0719	
554.20000	 0.0725	
554.40000	 0.0734	
554.60000	 0.0740	
554.80000	 0.0743	
555.00000	 0.0748	
555.20000	 0.0752	
555.40000	 0.0754	
555.60000	 0.0754	
555.80000	 0.0746	
556.00000	 0.0746	
556.20000	 0.0739	
556.40000	 0.0728	
556.60000	 0.0714	
556.80000	 0.0702	
557.00000	 0.0684	
557.20000	 0.0668	
557.40000	 0.0647	
557.60000	 0.0621	
557.80000	 0.0598	
558.00000	 0.0574	
558.20000	 0.0554	
558.40000	 0.0536	
558.60000	 0.0522	
558.80000	 0.0507	
559.00000	 0.0491	
559.20000	 0.0479	
559.40000	 0.0462	
559.60000	 0.0450	
559.80000	 0.0436	
560.00000	 0.0427	
560.20000	 0.0409	
560.40000	 0.0394	
560.60000	 0.0381	
560.80000	 0.0365	
561.00000	 0.0346	
561.20000	 0.0331	
561.40000	 0.0313	
561.60000	 0.0294	
561.80000	 0.0273	
562.00000	 0.0253	
562.20000	 0.0233	
562.40000	 0.0212	
562.60000	 0.0195	
562.80000	 0.0177	
563.00000	 0.0162	
563.20000	 0.0146	
563.40000	 0.0130	
563.60000	 0.0119	
563.80000	 0.0104	
564.00000	 0.0087	
564.20000	 0.0078	
564.40000	 0.0064	
564.60000	 0.0052	
564.80000	 0.0043	
565.00000	 0.0032	
565.20000	 0.0023	
565.40000	 0.0012	
565.60000	 0.0003	
565.80000	-0.0009	
566.00000	-0.0024	
566.20000	-0.0031	
566.40000	-0.0043	
566.60000	-0.0055	
566.80000	-0.0064	
567.00000	-0.0076	
567.20000	-0.0085	
567.40000	-0.0095	
567.60000	-0.0102	
567.80000	-0.0116	
568.00000	-0.0124	
568.20000	-0.0127	
568.40000	-0.0133	
568.60000	-0.0140	
568.80000	-0.0142	
569.00000	-0.0142	
569.20000	-0.0145	
569.40000	-0.0150	
569.60000	-0.0151	
569.80000	-0.0163	
570.00000	-0.0169	
570.20000	-0.0174	
570.40000	-0.0188	
570.60000	-0.0200	
570.80000	-0.0215	
571.00000	-0.0229	
571.20000	-0.0247	
571.40000	-0.0262	
571.60000	-0.0278	
571.80000	-0.0296	
572.00000	-0.0313	
572.20000	-0.0331	
572.40000	-0.0346	
572.60000	-0.0368	
572.80000	-0.0380	
573.00000	-0.0397	
573.20000	-0.0415	
573.40000	-0.0427	
573.60000	-0.0443	
573.80000	-0.0450	
574.00000	-0.0461	
574.20000	-0.0468	
574.40000	-0.0479	
574.60000	-0.0490	
574.80000	-0.0494	
575.00000	-0.0500	
575.20000	-0.0508	
575.40000	-0.0513	
575.60000	-0.0517	
575.80000	-0.0526	
576.00000	-0.0533	
576.20000	-0.0539	
576.40000	-0.0540	
576.60000	-0.0548	
576.80000	-0.0548	
577.00000	-0.0549	
577.20000	-0.0552	
577.40000	-0.0551	
577.60000	-0.0555	
577.80000	-0.0558	
578.00000	-0.0560	
578.20000	-0.0566	
578.40000	-0.0569	
578.60000	-0.0572	
578.80000	-0.0578	
579.00000	-0.0584	
579.20000	-0.0587	
579.40000	-0.0594	
579.60000	-0.0597	
579.80000	-0.0597	
580.00000	-0.0601	
580.20000	-0.0603	
580.40000	-0.0609	
580.60000	-0.0612	
580.80000	-0.0616	
581.00000	-0.0623	
581.20000	-0.0629	
581.40000	-0.0633	
581.60000	-0.0632	
581.80000	-0.0636	
582.00000	-0.0641	
582.20000	-0.0650	
582.40000	-0.0656	
582.60000	-0.0664	
582.80000	-0.0665	
583.00000	-0.0674	
583.20000	-0.0677	
583.40000	-0.0684	
583.60000	-0.0687	
583.80000	-0.0694	
584.00000	-0.0696	
584.20000	-0.0702	
584.40000	-0.0705	
584.60000	-0.0710	
584.80000	-0.0714	
585.00000	-0.0722	
585.20000	-0.0725	
585.40000	-0.0728	
585.60000	-0.0728	
585.80000	-0.0723	
586.00000	-0.0725	
586.20000	-0.0728	
586.40000	-0.0731	
586.60000	-0.0729	
586.80000	-0.0728	
587.00000	-0.0726	
587.20000	-0.0726	
587.40000	-0.0726	
587.60000	-0.0725	
587.80000	-0.0723	
588.00000	-0.0722	
588.20000	-0.0720	
588.40000	-0.0717	
588.60000	-0.0717	
588.80000	-0.0717	
589.00000	-0.0716	
589.20000	-0.0713	
589.40000	-0.0713	
589.60000	-0.0708	
589.80000	-0.0713	
590.00000	-0.0708	
590.20000	-0.0705	
590.40000	-0.0699	
590.60000	-0.0697	
590.80000	-0.0693	
591.00000	-0.0688	
591.20000	-0.0688	
591.40000	-0.0682	
591.60000	-0.0682	
591.80000	-0.0679	
592.00000	-0.0682	
592.20000	-0.0679	
592.40000	-0.0679	
592.60000	-0.0684	
592.80000	-0.0677	
593.00000	-0.0676	
593.20000	-0.0673	
593.40000	-0.0671	
593.60000	-0.0665	
593.80000	-0.0662	
594.00000	-0.0661	
594.20000	-0.0658	
594.40000	-0.0661	
594.60000	-0.0656	
594.80000	-0.0655	
595.00000	-0.0655	
595.20000	-0.0653	
595.40000	-0.0653	
595.60000	-0.0650	
595.80000	-0.0648	
596.00000	-0.0648	
596.20000	-0.0641	
596.40000	-0.0641	
596.60000	-0.0641	
596.80000	-0.0638	
597.00000	-0.0636	
597.20000	-0.0638	
597.40000	-0.0638	
597.60000	-0.0638	
597.80000	-0.0642	
598.00000	-0.0642	
598.20000	-0.0642	
598.40000	-0.0641	
598.60000	-0.0642	
598.80000	-0.0645	
599.00000	-0.0650	
599.20000	-0.0655	
599.40000	-0.0655	
599.60000	-0.0658	
599.80000	-0.0661	
600.00000	-0.0661	
600.20000	-0.0665	
600.40000	-0.0667	
600.60000	-0.0670	
600.80000	-0.0676	
601.00000	-0.0679	
601.20000	-0.0684	
601.40000	-0.0693	
601.60000	-0.0697	
601.80000	-0.0706	
602.00000	-0.0714	
602.20000	-0.0719	
602.40000	-0.0723	
602.60000	-0.0728	
602.80000	-0.0734	
603.00000	-0.0742	
603.20000	-0.0745	
603.40000	-0.0755	
603.60000	-0.0757	
603.80000	-0.0758	
604.00000	-0.0761	
604.20000	-0.0766	
604.40000	-0.0769	
604.60000	-0.0775	
604.80000	-0.0780	
605.00000	-0.0784	
605.20000	-0.0784	
605.40000	-0.0790	
605.60000	-0.0800	
605.80000	-0.0804	
606.00000	-0.0807	
606.20000	-0.0813	
606.40000	-0.0815	
606.60000	-0.0822	
606.80000	-0.0827	
607.00000	-0.0827	
607.20000	-0.0829	
607.40000	-0.0829	
607.60000	-0.0830	
607.80000	-0.0832	
608.00000	-0.0832	
608.20000	-0.0832	
608.40000	-0.0835	
608.60000	-0.0839	
608.80000	-0.0841	
609.00000	-0.0839	
609.20000	-0.0836	
609.40000	-0.0841	
609.60000	-0.0841	
609.80000	-0.0835	
610.00000	-0.0832	
610.20000	-0.0830	
610.40000	-0.0826	
610.60000	-0.0822	
610.80000	-0.0819	
611.00000	-0.0818	
611.20000	-0.0812	
611.40000	-0.0809	
611.60000	-0.0806	
611.80000	-0.0803	
612.00000	-0.0800	
612.20000	-0.0797	
612.40000	-0.0790	
612.60000	-0.0787	
612.80000	-0.0783	
613.00000	-0.0781	
613.20000	-0.0777	
613.40000	-0.0771	
613.60000	-0.0766	
613.80000	-0.0763	
614.00000	-0.0760	
614.20000	-0.0755	
614.40000	-0.0748	
614.60000	-0.0745	
614.80000	-0.0740	
615.00000	-0.0729	
615.20000	-0.0723	
615.40000	-0.0719	
615.60000	-0.0714	
615.80000	-0.0710	
616.00000	-0.0706	
616.20000	-0.0700	
616.40000	-0.0697	
616.60000	-0.0691	
616.80000	-0.0685	
617.00000	-0.0679	
617.20000	-0.0676	
617.40000	-0.0674	
617.60000	-0.0670	
617.80000	-0.0664	
618.00000	-0.0661	
618.20000	-0.0656	
618.40000	-0.0656	
618.60000	-0.0655	
618.80000	-0.0652	
619.00000	-0.0644	
619.20000	-0.0641	
619.40000	-0.0638	
619.60000	-0.0636	
619.80000	-0.0635	
620.00000	-0.0635	
620.20000	-0.0627	
620.40000	-0.0623	
620.60000	-0.0621	
620.80000	-0.0616	
621.00000	-0.0613	
621.20000	-0.0612	
621.40000	-0.0606	
621.60000	-0.0606	
621.80000	-0.0598	
622.00000	-0.0597	
622.20000	-0.0595	
622.40000	-0.0592	
622.60000	-0.0591	
622.80000	-0.0587	
623.00000	-0.0586	
623.20000	-0.0584	
623.40000	-0.0581	
623.60000	-0.0572	
623.80000	-0.0569	
624.00000	-0.0565	
624.20000	-0.0558	
624.40000	-0.0554	
624.60000	-0.0548	
624.80000	-0.0543	
625.00000	-0.0536	
625.20000	-0.0534	
625.40000	-0.0526	
625.60000	-0.0516	
625.80000	-0.0511	
626.00000	-0.0508	
626.20000	-0.0500	
626.40000	-0.0494	
626.60000	-0.0485	
626.80000	-0.0476	
627.00000	-0.0467	
627.20000	-0.0459	
627.40000	-0.0453	
627.60000	-0.0449	
627.80000	-0.0438	
628.00000	-0.0430	
628.20000	-0.0421	
628.40000	-0.0417	
628.60000	-0.0410	
628.80000	-0.0401	
629.00000	-0.0394	
629.20000	-0.0389	
629.40000	-0.0381	
629.60000	-0.0374	
629.80000	-0.0366	
630.00000	-0.0360	
630.20000	-0.0354	
630.40000	-0.0346	
630.60000	-0.0342	
630.80000	-0.0336	
631.00000	-0.0331	
631.20000	-0.0323	
631.40000	-0.0320	
631.60000	-0.0307	
631.80000	-0.0302	
632.00000	-0.0294	
632.20000	-0.0288	
632.40000	-0.0290	
632.60000	-0.0284	
632.80000	-0.0278	
633.00000	-0.0272	
633.20000	-0.0262	
633.40000	-0.0258	
633.60000	-0.0253	
633.80000	-0.0250	
634.00000	-0.0241	
634.20000	-0.0237	
634.40000	-0.0235	
634.60000	-0.0230	
634.80000	-0.0229	
635.00000	-0.0227	
635.20000	-0.0224	
635.40000	-0.0224	
635.60000	-0.0218	
635.80000	-0.0217	
636.00000	-0.0211	
636.20000	-0.0212	
636.40000	-0.0211	
636.60000	-0.0212	
636.80000	-0.0211	
637.00000	-0.0206	
637.20000	-0.0204	
637.40000	-0.0208	
637.60000	-0.0204	
637.80000	-0.0204	
638.00000	-0.0200	
638.20000	-0.0200	
638.40000	-0.0198	
638.60000	-0.0198	
638.80000	-0.0198	
639.00000	-0.0195	
639.20000	-0.0194	
639.40000	-0.0192	
639.60000	-0.0191	
639.80000	-0.0189	
640.00000	-0.0186	
640.20000	-0.0182	
640.40000	-0.0172	
640.60000	-0.0165	
640.80000	-0.0157	
641.00000	-0.0146	
641.20000	-0.0140	
641.40000	-0.0130	
641.60000	-0.0119	
641.80000	-0.0108	
642.00000	-0.0101	
642.20000	-0.0098	
642.40000	-0.0081	
642.60000	-0.0076	
642.80000	-0.0069	
643.00000	-0.0060	
643.20000	-0.0047	
643.40000	-0.0041	
643.60000	-0.0029	
643.80000	-0.0024	
644.00000	-0.0020	
644.20000	-0.0012	
644.40000	-0.0006	
644.60000	 0.0000	
644.80000	-0.0003	
645.00000	 0.0000	
645.20000	 0.0003	
645.40000	 0.0002	
645.60000	 0.0005	
645.80000	 0.0003	
646.00000	 0.0008	
646.20000	 0.0006	
646.40000	 0.0008	
646.60000	 0.0011	
646.80000	 0.0012	
647.00000	 0.0005	
647.20000	 0.0003	
647.40000	 0.0000	
647.60000	 0.0000	
647.80000	 0.0000	
648.00000	 0.0000	
648.20000	 0.0002	
648.40000	 0.0002	
648.60000	 0.0000	
648.80000	 0.0003	
649.00000	 0.0000	
649.20000	 0.0000	
649.40000	 0.0000	
649.60000	 0.0000	
649.80000	 0.0000	
650.00000	-0.0002	
650.20000	 0.0000	
650.40000	-0.0002	
650.60000	 0.0000	
650.80000	 0.0000	
651.00000	 0.0000	
651.20000	-0.0003	
651.40000	 0.0000	
651.60000	-0.0003	
651.80000	-0.0006	
652.00000	-0.0008	
652.20000	-0.0006	
652.40000	-0.0006	
652.60000	-0.0009	
652.80000	-0.0012	
653.00000	-0.0015	
653.20000	-0.0018	
653.40000	-0.0021	
653.60000	-0.0020	
653.80000	-0.0024	
654.00000	-0.0027	
654.20000	-0.0026	
654.40000	-0.0031	
654.60000	-0.0037	
654.80000	-0.0038	
655.00000	-0.0037	
655.20000	-0.0041	
655.40000	-0.0041	
655.60000	-0.0041	
655.80000	-0.0044	
656.00000	-0.0044	
656.20000	-0.0046	
656.40000	-0.0046	
656.60000	-0.0047	
656.80000	-0.0049	
657.00000	-0.0047	
657.20000	-0.0043	
657.40000	-0.0046	
657.60000	-0.0044	
657.80000	-0.0044	
658.00000	-0.0044	
658.20000	-0.0046	
658.40000	-0.0046	
658.60000	-0.0047	
658.80000	-0.0049	
659.00000	-0.0047	
659.20000	-0.0047	
659.40000	-0.0050	
659.60000	-0.0050	
659.80000	-0.0049	
660.00000	-0.0049	
660.20000	-0.0047	
660.40000	-0.0046	
660.60000	-0.0050	
660.80000	-0.0047	
661.00000	-0.0047	
661.20000	-0.0047	
661.40000	-0.0049	
661.60000	-0.0046	
661.80000	-0.0049	
662.00000	-0.0049	
662.20000	-0.0050	
662.40000	-0.0050	
662.60000	-0.0055	
662.80000	-0.0055	
663.00000	-0.0052	
663.20000	-0.0055	
663.40000	-0.0050	
663.60000	-0.0050	
663.80000	-0.0050	
664.00000	-0.0050	
664.20000	-0.0050	
664.40000	-0.0047	
664.60000	-0.0052	
664.80000	-0.0047	
665.00000	-0.0043	
665.20000	-0.0040	
665.40000	-0.0040	
665.60000	-0.0037	
665.80000	-0.0037	
666.00000	-0.0035	
666.20000	-0.0026	
666.40000	-0.0023	
666.60000	-0.0018	
666.80000	-0.0014	
667.00000	-0.0009	
667.20000	-0.0003	
667.40000	-0.0003	
667.60000	 0.0002	
667.80000	 0.0008	
668.00000	 0.0012	
668.20000	 0.0017	
668.40000	 0.0021	
668.60000	 0.0026	
668.80000	 0.0038	
669.00000	 0.0046	
669.20000	 0.0061	
669.40000	 0.0075	
669.60000	 0.0085	
669.80000	 0.0099	
670.00000	 0.0117	
670.20000	 0.0139	
670.40000	 0.0160	
670.60000	 0.0183	
670.80000	 0.0204	
671.00000	 0.0226	
671.20000	 0.0252	
671.40000	 0.0281	
671.60000	 0.0314	
671.80000	 0.0351	
672.00000	 0.0398	
672.20000	 0.0446	
672.40000	 0.0499	
672.60000	 0.0569	
672.80000	 0.0650	
673.00000	 0.0740	
673.20000	 0.0847	
673.40000	 0.0966	
673.60000	 0.1103	
673.80000	 0.1259	
674.00000	 0.1427	
674.20000	 0.1613	
674.40000	 0.1814	
674.60000	 0.2029	
674.80000	 0.2260	
675.00000	 0.2504	
675.20000	 0.2763	
675.40000	 0.3044	
675.60000	 0.3342	
675.80000	 0.3654	
676.00000	 0.3989	
676.20000	 0.4332	
676.40000	 0.4684	
676.60000	 0.5048	
676.80000	 0.5405	
677.00000	 0.5748	
677.20000	 0.6064	
677.40000	 0.6340	
677.60000	 0.6566	
677.80000	 0.6732	
678.00000	 0.6831	
678.20000	 0.6854	
678.40000	 0.6799	
678.60000	 0.6659	
678.80000	 0.6432	
679.00000	 0.6108	
679.20000	 0.5695	
679.40000	 0.5193	
679.60000	 0.4605	
679.80000	 0.3944	
680.00000	 0.3209	
680.20000	 0.2399	
680.40000	 0.1518	
680.60000	 0.0565	
680.80000	-0.0449	
681.00000	-0.1523	
681.20000	-0.2631	
681.40000	-0.3766	
681.60000	-0.4910	
681.80000	-0.6059	
682.00000	-0.7201	
682.20000	-0.8308	
682.40000	-0.9392	
682.60000	-1.0426	
682.80000	-1.1409	
683.00000	-1.2344	
683.20000	-1.3229	
683.40000	-1.4069	
683.60000	-1.4857	
683.80000	-1.5593	
684.00000	-1.6270	
684.20000	-1.6888	
684.40000	-1.7439	
684.60000	-1.7918	
684.80000	-1.8315	
685.00000	-1.8623	
685.20000	-1.8848	
685.40000	-1.8983	
685.60000	-1.9034	
685.80000	-1.9012	
686.00000	-1.8929	
686.20000	-1.8784	
686.40000	-1.8585	
686.60000	-1.8352	
686.80000	-1.8085	
687.00000	-1.7793	
687.20000	-1.7488	
687.40000	-1.7174	
687.60000	-1.6853	
687.80000	-1.6536	
688.00000	-1.6220	
688.20000	-1.5912	
688.40000	-1.5613	
688.60000	-1.5329	
688.80000	-1.5060	
689.00000	-1.4813	
689.20000	-1.4590	
689.40000	-1.4404	
689.60000	-1.4249	
689.80000	-1.4133	
690.00000	-1.4053	
690.20000	-1.3992	
690.40000	-1.3934	
690.60000	-1.3870	
690.80000	-1.3797	
691.00000	-1.3699	
691.20000	-1.3579	
691.40000	-1.3429	
691.60000	-1.3252	
691.80000	-1.3039	
692.00000	-1.2790	
692.20000	-1.2515	
692.40000	-1.2199	
692.60000	-1.1856	
692.80000	-1.1491	
693.00000	-1.1102	
693.20000	-1.0695	
693.40000	-1.0269	
693.60000	-0.9834	
693.80000	-0.9386	
694.00000	-0.8931	
694.20000	-0.8467	
694.40000	-0.8002	
694.60000	-0.7533	
694.80000	-0.7060	
695.00000	-0.6592	
695.20000	-0.6123	
695.40000	-0.5655	
695.60000	-0.5194	
695.80000	-0.4742	
696.00000	-0.4292	
696.20000	-0.3856	
696.40000	-0.3430	
696.60000	-0.3012	
696.80000	-0.2609	
697.00000	-0.2220	
697.20000	-0.1840	
697.40000	-0.1477	
697.60000	-0.1128	
697.80000	-0.0789	
698.00000	-0.0467	
698.20000	-0.0162	
698.40000	 0.0130	
698.60000	 0.0403	
698.80000	 0.0659	
699.00000	 0.0893	
699.20000	 0.1114	
699.40000	 0.1318	
699.60000	 0.1505	
699.80000	 0.1674	
700.00000	 0.1830	
700.20000	 0.1971	
700.40000	 0.2106	
700.60000	 0.2242	
700.80000	 0.2373	
701.00000	 0.2513	
701.20000	 0.2650	
701.40000	 0.2798	
701.60000	 0.2951	
701.80000	 0.3111	
702.00000	 0.3284	
702.20000	 0.3468	
702.40000	 0.3668	
702.60000	 0.3882	
702.80000	 0.4105	
703.00000	 0.4327	
703.20000	 0.4556	
703.40000	 0.4788	
703.60000	 0.5025	
703.80000	 0.5255	
704.00000	 0.5486	
704.20000	 0.5711	
704.40000	 0.5933	
704.60000	 0.6151	
704.80000	 0.6358	
705.00000	 0.6570	
705.20000	 0.6772	
705.40000	 0.6967	
705.60000	 0.7153	
705.80000	 0.7321	
706.00000	 0.7483	
706.20000	 0.7639	
706.40000	 0.7796	
706.60000	 0.7951	
706.80000	 0.8105	
707.00000	 0.8266	
707.20000	 0.8430	
707.40000	 0.8592	
707.60000	 0.8754	
707.80000	 0.8917	
708.00000	 0.9076	
708.20000	 0.9235	
708.40000	 0.9383	
708.60000	 0.9525	
708.80000	 0.9666	
709.00000	 0.9798	
709.20000	 0.9923	
709.40000	 1.0042	
709.60000	 1.0150	
709.80000	 1.0249	
710.00000	 1.0344	
710.20000	 1.0428	
710.40000	 1.0503	
710.60000	 1.0565	
710.80000	 1.0620	
711.00000	 1.0660	
711.20000	 1.0686	
711.40000	 1.0704	
711.60000	 1.0712	
711.80000	 1.0709	
712.00000	 1.0689	
712.20000	 1.0666	
712.40000	 1.0634	
712.60000	 1.0593	
712.80000	 1.0544	
713.00000	 1.0492	
713.20000	 1.0432	
713.40000	 1.0365	
713.60000	 1.0295	
713.80000	 1.0217	
714.00000	 1.0136	
714.20000	 1.0049	
714.40000	 0.9962	
714.60000	 0.9874	
714.80000	 0.9785	
715.00000	 0.9691	
715.20000	 0.9599	
715.40000	 0.9502	
715.60000	 0.9406	
715.80000	 0.9305	
716.00000	 0.9206	
716.20000	 0.9109	
716.40000	 0.9012	
716.60000	 0.8913	
716.80000	 0.8817	
717.00000	 0.8720	
717.20000	 0.8623	
717.40000	 0.8524	
717.60000	 0.8430	
717.80000	 0.8333	
718.00000	 0.8234	
718.20000	 0.8139	
718.40000	 0.8038	
718.60000	 0.7941	
718.80000	 0.7845	
719.00000	 0.7747	
719.20000	 0.7655	
719.40000	 0.7555	
719.60000	 0.7458	
719.80000	 0.7359	
720.00000	 0.7266	
720.20000	 0.7172	
720.40000	 0.7080	
720.60000	 0.6984	
720.80000	 0.6895	
721.00000	 0.6805	
721.20000	 0.6714	
721.40000	 0.6619	
721.60000	 0.6532	
721.80000	 0.6442	
722.00000	 0.6357	
722.20000	 0.6267	
722.40000	 0.6178	
722.60000	 0.6091	
722.80000	 0.6007	
723.00000	 0.5923	
723.20000	 0.5843	
723.40000	 0.5760	
723.60000	 0.5681	
723.80000	 0.5600	
724.00000	 0.5527	
724.20000	 0.5453	
724.40000	 0.5377	
724.60000	 0.5304	
724.80000	 0.5229	
725.00000	 0.5154	
725.20000	 0.5084	
725.40000	 0.5016	
725.60000	 0.4941	
725.80000	 0.4875	
726.00000	 0.4807	
726.20000	 0.4735	
726.40000	 0.4669	
726.60000	 0.4608	
726.80000	 0.4544	
727.00000	 0.4482	
727.20000	 0.4422	
727.40000	 0.4364	
727.60000	 0.4306	
727.80000	 0.4243	
728.00000	 0.4189	
728.20000	 0.4131	
728.40000	 0.4071	
728.60000	 0.4019	
728.80000	 0.3963	
729.00000	 0.3905	
729.20000	 0.3853	
729.40000	 0.3798	
729.60000	 0.3746	
729.80000	 0.3697	
730.00000	 0.3644	
730.20000	 0.3596	
730.40000	 0.3545	
730.60000	 0.3496	
730.80000	 0.3447	
731.00000	 0.3397	
731.20000	 0.3351	
731.40000	 0.3307	
731.60000	 0.3259	
731.80000	 0.3218	
732.00000	 0.3172	
732.20000	 0.3130	
732.40000	 0.3078	
732.60000	 0.3032	
732.80000	 0.2991	
733.00000	 0.2951	
733.20000	 0.2907	
733.40000	 0.2867	
733.60000	 0.2824	
733.80000	 0.2789	
734.00000	 0.2745	
734.20000	 0.2707	
734.40000	 0.2669	
734.60000	 0.2629	
734.80000	 0.2583	
735.00000	 0.2545	
735.20000	 0.2507	
735.40000	 0.2467	
735.60000	 0.2432	
735.80000	 0.2393	
736.00000	 0.2356	
736.20000	 0.2316	
736.40000	 0.2274	
736.60000	 0.2242	
736.80000	 0.2202	
737.00000	 0.2167	
737.20000	 0.2132	
737.40000	 0.2095	
737.60000	 0.2060	
737.80000	 0.2026	
738.00000	 0.1991	
738.20000	 0.1956	
738.40000	 0.1926	
738.60000	 0.1891	
738.80000	 0.1860	
739.00000	 0.1826	
739.20000	 0.1791	
739.40000	 0.1761	
739.60000	 0.1732	
739.80000	 0.1700	
740.00000	 0.1669	
740.20000	 0.1640	
740.40000	 0.1613	
740.60000	 0.1585	
740.80000	 0.1564	
741.00000	 0.1538	
741.20000	 0.1511	
741.40000	 0.1485	
741.60000	 0.1459	
741.80000	 0.1439	
742.00000	 0.1413	
742.20000	 0.1393	
742.40000	 0.1373	
742.60000	 0.1349	
742.80000	 0.1326	
743.00000	 0.1303	
743.20000	 0.1280	
743.40000	 0.1263	
743.60000	 0.1247	
743.80000	 0.1230	
744.00000	 0.1208	
744.20000	 0.1193	
744.40000	 0.1173	
744.60000	 0.1158	
744.80000	 0.1140	
745.00000	 0.1123	
745.20000	 0.1103	
745.40000	 0.1088	
745.60000	 0.1074	
745.80000	 0.1056	
746.00000	 0.1038	
746.20000	 0.1021	
746.40000	 0.1010	
746.60000	 0.0993	
746.80000	 0.0980	
747.00000	 0.0960	
747.20000	 0.0949	
747.40000	 0.0931	
747.60000	 0.0916	
747.80000	 0.0903	
748.00000	 0.0887	
748.20000	 0.0876	
748.40000	 0.0864	
748.60000	 0.0851	
748.80000	 0.0841	
749.00000	 0.0826	
749.20000	 0.0807	
749.40000	 0.0798	
749.60000	 0.0783	
749.80000	 0.0768	
750.00000	 0.0755	
750.20000	 0.0743	
750.40000	 0.0728	
750.60000	 0.0717	
750.80000	 0.0705	
751.00000	 0.0693	
751.20000	 0.0676	
751.40000	 0.0661	
751.60000	 0.0647	
751.80000	 0.0633	
752.00000	 0.0620	
752.20000	 0.0604	
752.40000	 0.0594	
752.60000	 0.0580	
752.80000	 0.0568	
753.00000	 0.0549	
753.20000	 0.0537	
753.40000	 0.0520	
753.60000	 0.0507	
753.80000	 0.0494	
754.00000	 0.0484	
754.20000	 0.0467	
754.40000	 0.0453	
754.60000	 0.0444	
754.80000	 0.0427	
755.00000	 0.0415	
755.20000	 0.0403	
755.40000	 0.0389	
755.60000	 0.0375	
755.80000	 0.0362	
756.00000	 0.0349	
756.20000	 0.0336	
756.40000	 0.0325	
756.60000	 0.0313	
756.80000	 0.0301	
757.00000	 0.0293	
757.20000	 0.0281	
757.40000	 0.0272	
757.60000	 0.0267	
757.80000	 0.0259	
758.00000	 0.0250	
758.20000	 0.0240	
758.40000	 0.0232	
758.60000	 0.0223	
758.80000	 0.0215	
759.00000	 0.0208	
759.20000	 0.0203	
759.40000	 0.0194	
759.60000	 0.0186	
759.80000	 0.0180	
760.00000	 0.0172	
760.20000	 0.0169	
760.40000	 0.0163	
760.60000	 0.0163	
760.80000	 0.0156	
761.00000	 0.0151	
761.20000	 0.0145	
761.40000	 0.0143	
761.60000	 0.0140	
761.80000	 0.0134	
762.00000	 0.0130	
762.20000	 0.0122	
762.40000	 0.0119	
762.60000	 0.0113	
762.80000	 0.0104	
763.00000	 0.0102	
763.20000	 0.0098	
763.40000	 0.0095	
763.60000	 0.0085	
763.80000	 0.0082	
764.00000	 0.0076	
764.20000	 0.0073	
764.40000	 0.0067	
764.60000	 0.0063	
764.80000	 0.0061	
765.00000	 0.0060	
765.20000	 0.0061	
765.40000	 0.0056	
765.60000	 0.0053	
765.80000	 0.0046	
766.00000	 0.0046	
766.20000	 0.0043	
766.40000	 0.0041	
766.60000	 0.0038	
766.80000	 0.0034	
767.00000	 0.0029	
767.20000	 0.0024	
767.40000	 0.0023	
767.60000	 0.0018	
767.80000	 0.0014	
768.00000	 0.0006	
768.20000	 0.0005	
768.40000	-0.0003	
768.60000	-0.0006	
768.80000	-0.0015	
769.00000	-0.0020	
769.20000	-0.0023	
769.40000	-0.0029	
769.60000	-0.0037	
769.80000	-0.0043	
770.00000	-0.0050	
770.20000	-0.0058	
770.40000	-0.0063	
770.60000	-0.0069	
770.80000	-0.0073	
771.00000	-0.0084	
771.20000	-0.0090	
771.40000	-0.0099	
771.60000	-0.0102	
771.80000	-0.0111	
772.00000	-0.0119	
772.20000	-0.0125	
772.40000	-0.0133	
772.60000	-0.0143	
772.80000	-0.0145	
773.00000	-0.0153	
773.20000	-0.0163	
773.40000	-0.0171	
773.60000	-0.0172	
773.80000	-0.0177	
774.00000	-0.0182	
774.20000	-0.0183	
774.40000	-0.0188	
774.60000	-0.0189	
774.80000	-0.0194	
775.00000	-0.0195	
775.20000	-0.0200	
775.40000	-0.0200	
775.60000	-0.0206	
775.80000	-0.0204	
776.00000	-0.0208	
776.20000	-0.0211	
776.40000	-0.0211	
776.60000	-0.0209	
776.80000	-0.0209	
777.00000	-0.0209	
777.20000	-0.0211	
777.40000	-0.0211	
777.60000	-0.0211	
777.80000	-0.0214	
778.00000	-0.0211	
778.20000	-0.0215	
778.40000	-0.0215	
778.60000	-0.0218	
778.80000	-0.0217	
779.00000	-0.0221	
779.20000	-0.0220	
779.40000	-0.0221	
779.60000	-0.0221	
779.80000	-0.0221	
780.00000	-0.0221	
780.20000	-0.0226	
780.40000	-0.0221	
780.60000	-0.0227	
780.80000	-0.0230	
781.00000	-0.0230	
781.20000	-0.0232	
781.40000	-0.0230	
781.60000	-0.0230	
781.80000	-0.0227	
782.00000	-0.0230	
782.20000	-0.0232	
782.40000	-0.0237	
782.60000	-0.0237	
782.80000	-0.0240	
783.00000	-0.0241	
783.20000	-0.0241	
783.40000	-0.0241	
783.60000	-0.0246	
783.80000	-0.0247	
784.00000	-0.0252	
784.20000	-0.0250	
784.40000	-0.0255	
784.60000	-0.0261	
784.80000	-0.0262	
785.00000	-0.0269	
785.20000	-0.0275	
785.40000	-0.0276	
785.60000	-0.0282	
785.80000	-0.0284	
786.00000	-0.0290	
786.20000	-0.0296	
786.40000	-0.0302	
786.60000	-0.0305	
786.80000	-0.0313	
787.00000	-0.0316	
787.20000	-0.0320	
787.40000	-0.0323	
787.60000	-0.0334	
787.80000	-0.0334	
788.00000	-0.0340	
788.20000	-0.0346	
788.40000	-0.0354	
788.60000	-0.0359	
788.80000	-0.0366	
789.00000	-0.0372	
789.20000	-0.0377	
789.40000	-0.0386	
789.60000	-0.0386	
789.80000	-0.0394	
790.00000	-0.0403	
790.20000	-0.0404	
790.40000	-0.0404	
790.60000	-0.0409	
790.80000	-0.0412	
791.00000	-0.0415	
791.20000	-0.0418	
791.40000	-0.0418	
791.60000	-0.0421	
791.80000	-0.0424	
792.00000	-0.0430	
792.20000	-0.0427	
792.40000	-0.0426	
792.60000	-0.0430	
792.80000	-0.0433	
793.00000	-0.0433	
793.20000	-0.0433	
793.40000	-0.0433	
793.60000	-0.0433	
793.80000	-0.0433	
794.00000	-0.0438	
794.20000	-0.0432	
794.40000	-0.0432	
794.60000	-0.0433	
794.80000	-0.0430	
795.00000	-0.0438	
795.20000	-0.0444	
795.40000	-0.0439	
795.60000	-0.0439	
795.80000	-0.0441	
796.00000	-0.0441	
796.20000	-0.0444	
796.40000	-0.0441	
796.60000	-0.0441	
796.80000	-0.0444	
797.00000	-0.0443	
797.20000	-0.0447	
797.40000	-0.0446	
797.60000	-0.0449	
797.80000	-0.0447	
798.00000	-0.0446	
798.20000	-0.0447	
798.40000	-0.0446	
798.60000	-0.0447	
798.80000	-0.0450	
799.00000	-0.0453	
799.20000	-0.0453	
799.40000	-0.0452	
799.60000	-0.0455	
799.80000	-0.0459	
800.00000	-0.0462	
800.20000	-0.0461	
800.40000	-0.0464	
800.60000	-0.0464	
800.80000	-0.0465	
801.00000	-0.0471	
801.20000	-0.0476	
801.40000	-0.0479	
801.60000	-0.0485	
801.80000	-0.0491	
802.00000	-0.0500	
802.20000	-0.0502	
802.40000	-0.0504	
802.60000	-0.0505	
802.80000	-0.0513	
803.00000	-0.0519	
803.20000	-0.0526	
803.40000	-0.0531	
803.60000	-0.0534	
803.80000	-0.0536	
804.00000	-0.0540	
804.20000	-0.0548	
804.40000	-0.0552	
804.60000	-0.0558	
804.80000	-0.0565	
805.00000	-0.0569	
805.20000	-0.0575	
805.40000	-0.0584	
805.60000	-0.0589	
805.80000	-0.0595	
806.00000	-0.0603	
806.20000	-0.0607	
806.40000	-0.0612	
806.60000	-0.0620	
806.80000	-0.0624	
807.00000	-0.0624	
807.20000	-0.0627	
807.40000	-0.0630	
807.60000	-0.0632	
807.80000	-0.0632	
808.00000	-0.0636	
808.20000	-0.0639	
808.40000	-0.0642	
808.60000	-0.0641	
808.80000	-0.0650	
809.00000	-0.0652	
809.20000	-0.0650	
809.40000	-0.0658	
809.60000	-0.0653	
809.80000	-0.0655	
810.00000	-0.0653	
810.20000	-0.0655	
810.40000	-0.0652	
810.60000	-0.0653	
810.80000	-0.0652	
811.00000	-0.0652	
811.20000	-0.0652	
811.40000	-0.0650	
811.60000	-0.0648	
811.80000	-0.0650	
812.00000	-0.0653	
812.20000	-0.0650	
812.40000	-0.0650	
812.60000	-0.0653	
812.80000	-0.0653	
813.00000	-0.0650	
813.20000	-0.0650	
813.40000	-0.0652	
813.60000	-0.0652	
813.80000	-0.0652	
814.00000	-0.0653	
814.20000	-0.0655	
814.40000	-0.0653	
814.60000	-0.0655	
814.80000	-0.0656	
815.00000	-0.0655	
815.20000	-0.0648	
815.40000	-0.0655	
815.60000	-0.0653	
815.80000	-0.0655	
816.00000	-0.0659	
816.20000	-0.0659	
816.40000	-0.0661	
816.60000	-0.0664	
816.80000	-0.0665	
817.00000	-0.0664	
817.20000	-0.0670	
817.40000	-0.0667	
817.60000	-0.0673	
817.80000	-0.0676	
818.00000	-0.0679	
818.20000	-0.0681	
818.40000	-0.0687	
818.60000	-0.0688	
818.80000	-0.0694	
819.00000	-0.0694	
819.20000	-0.0696	
819.40000	-0.0699	
819.60000	-0.0706	
819.80000	-0.0710	
820.00000	-0.0716	
820.20000	-0.0719	
820.40000	-0.0722	
820.60000	-0.0725	
820.80000	-0.0729	
821.00000	-0.0735	
821.20000	-0.0739	
821.40000	-0.0742	
821.60000	-0.0746	
821.80000	-0.0749	
822.00000	-0.0751	
822.20000	-0.0758	
822.40000	-0.0764	
822.60000	-0.0766	
822.80000	-0.0771	
823.00000	-0.0777	
823.20000	-0.0780	
823.40000	-0.0784	
823.60000	-0.0787	
823.80000	-0.0787	
824.00000	-0.0787	
824.20000	-0.0786	
824.40000	-0.0789	
824.60000	-0.0792	
824.80000	-0.0792	
825.00000	-0.0797	
825.20000	-0.0797	
825.40000	-0.0800	
825.60000	-0.0800	
825.80000	-0.0797	
826.00000	-0.0798	
826.20000	-0.0798	
826.40000	-0.0798	
826.60000	-0.0797	
826.80000	-0.0792	
827.00000	-0.0792	
827.20000	-0.0787	
827.40000	-0.0784	
827.60000	-0.0781	
827.80000	-0.0781	
828.00000	-0.0777	
828.20000	-0.0772	
828.40000	-0.0772	
828.60000	-0.0772	
828.80000	-0.0769	
829.00000	-0.0769	
829.20000	-0.0769	
829.40000	-0.0764	
829.60000	-0.0763	
829.80000	-0.0760	
830.00000	-0.0758	
830.20000	-0.0755	
830.40000	-0.0751	
830.60000	-0.0751	
830.80000	-0.0748	
831.00000	-0.0748	
831.20000	-0.0745	
831.40000	-0.0745	
831.60000	-0.0740	
831.80000	-0.0735	
832.00000	-0.0735	
832.20000	-0.0735	
832.40000	-0.0737	
832.60000	-0.0734	
832.80000	-0.0731	
833.00000	-0.0731	
833.20000	-0.0728	
833.40000	-0.0726	
833.60000	-0.0722	
833.80000	-0.0722	
834.00000	-0.0717	
834.20000	-0.0720	
834.40000	-0.0719	
834.60000	-0.0720	
834.80000	-0.0720	
835.00000	-0.0723	
835.20000	-0.0725	
835.40000	-0.0728	
835.60000	-0.0726	
835.80000	-0.0726	
836.00000	-0.0729	
836.20000	-0.0735	
836.40000	-0.0737	
836.60000	-0.0740	
836.80000	-0.0743	
837.00000	-0.0743	
837.20000	-0.0742	
837.40000	-0.0746	
837.60000	-0.0749	
837.80000	-0.0751	
838.00000	-0.0752	
838.20000	-0.0755	
838.40000	-0.0758	
838.60000	-0.0763	
838.80000	-0.0764	
839.00000	-0.0768	
839.20000	-0.0772	
839.40000	-0.0775	
839.60000	-0.0777	
839.80000	-0.0780	
840.00000	-0.0784	
840.20000	-0.0786	
840.40000	-0.0783	
840.60000	-0.0780	
840.80000	-0.0780	
841.00000	-0.0777	
841.20000	-0.0781	
841.40000	-0.0780	
841.60000	-0.0780	
841.80000	-0.0780	
842.00000	-0.0780	
842.20000	-0.0777	
842.40000	-0.0778	
842.60000	-0.0777	
842.80000	-0.0778	
843.00000	-0.0772	
843.20000	-0.0768	
843.40000	-0.0764	
843.60000	-0.0761	
843.80000	-0.0755	
844.00000	-0.0752	
844.20000	-0.0748	
844.40000	-0.0743	
844.60000	-0.0743	
844.80000	-0.0742	
845.00000	-0.0739	
845.20000	-0.0731	
845.40000	-0.0729	
845.60000	-0.0728	
845.80000	-0.0728	
846.00000	-0.0723	
846.20000	-0.0722	
846.40000	-0.0720	
846.60000	-0.0714	
846.80000	-0.0713	
847.00000	-0.0713	
847.20000	-0.0705	
847.40000	-0.0705	
847.60000	-0.0703	
847.80000	-0.0702	
848.00000	-0.0702	
848.20000	-0.0697	
848.40000	-0.0694	
848.60000	-0.0694	
848.80000	-0.0691	
849.00000	-0.0687	
849.20000	-0.0688	
849.40000	-0.0691	
849.60000	-0.0687	
849.80000	-0.0685	
850.00000	-0.0685	
850.20000	-0.0685	
850.40000	-0.0685	
850.60000	-0.0684	
850.80000	-0.0682	
851.00000	-0.0682	
851.20000	-0.0684	
851.40000	-0.0684	
851.60000	-0.0687	
851.80000	-0.0691	
852.00000	-0.0693	
852.20000	-0.0694	
852.40000	-0.0697	
852.60000	-0.0697	
852.80000	-0.0700	
853.00000	-0.0705	
853.20000	-0.0708	
853.40000	-0.0710	
853.60000	-0.0714	
853.80000	-0.0713	
854.00000	-0.0717	
854.20000	-0.0722	
854.40000	-0.0725	
854.60000	-0.0728	
854.80000	-0.0737	
855.00000	-0.0739	
855.20000	-0.0743	
855.40000	-0.0746	
855.60000	-0.0752	
855.80000	-0.0758	
856.00000	-0.0763	
856.20000	-0.0766	
856.40000	-0.0771	
856.60000	-0.0775	
856.80000	-0.0778	
857.00000	-0.0781	
857.20000	-0.0778	
857.40000	-0.0780	
857.60000	-0.0780	
857.80000	-0.0781	
858.00000	-0.0781	
858.20000	-0.0783	
858.40000	-0.0781	
858.60000	-0.0784	
858.80000	-0.0786	
859.00000	-0.0786	
859.20000	-0.0784	
859.40000	-0.0787	
859.60000	-0.0784	
859.80000	-0.0786	
860.00000	-0.0786	
860.20000	-0.0783	
860.40000	-0.0781	
860.60000	-0.0778	
860.80000	-0.0777	
861.00000	-0.0777	
861.20000	-0.0777	
861.40000	-0.0775	
861.60000	-0.0775	
861.80000	-0.0777	
862.00000	-0.0772	
862.20000	-0.0772	
862.40000	-0.0775	
862.60000	-0.0778	
862.80000	-0.0777	
863.00000	-0.0778	
863.20000	-0.0777	
863.40000	-0.0777	
863.60000	-0.0777	
863.80000	-0.0777	
864.00000	-0.0780	
864.20000	-0.0781	
864.40000	-0.0780	
864.60000	-0.0784	
864.80000	-0.0784	
865.00000	-0.0783	
865.20000	-0.0783	
865.40000	-0.0787	
865.60000	-0.0789	
865.80000	-0.0790	
866.00000	-0.0793	
866.20000	-0.0797	
866.40000	-0.0800	
866.60000	-0.0803	
866.80000	-0.0803	
867.00000	-0.0807	
867.20000	-0.0809	
867.40000	-0.0813	
867.60000	-0.0813	
867.80000	-0.0819	
868.00000	-0.0826	
868.20000	-0.0829	
868.40000	-0.0839	
868.60000	-0.0847	
868.80000	-0.0850	
869.00000	-0.0854	
869.20000	-0.0864	
869.40000	-0.0867	
869.60000	-0.0873	
869.80000	-0.0885	
870.00000	-0.0894	
870.20000	-0.0894	
870.40000	-0.0903	
870.60000	-0.0912	
870.80000	-0.0919	
871.00000	-0.0926	
871.20000	-0.0934	
871.40000	-0.0941	
871.60000	-0.0948	
871.80000	-0.0954	
872.00000	-0.0963	
872.20000	-0.0975	
872.40000	-0.0984	
872.60000	-0.0992	
872.80000	-0.0998	
873.00000	-0.1010	
873.20000	-0.1019	
873.40000	-0.1025	
873.60000	-0.1036	
873.80000	-0.1039	
874.00000	-0.1042	
874.20000	-0.1048	
874.40000	-0.1053	
874.60000	-0.1056	
874.80000	-0.1064	
875.00000	-0.1073	
875.20000	-0.1074	
875.40000	-0.1082	
875.60000	-0.1083	
875.80000	-0.1091	
876.00000	-0.1097	
876.20000	-0.1103	
876.40000	-0.1106	
876.60000	-0.1108	
876.80000	-0.1111	
877.00000	-0.1117	
877.20000	-0.1118	
877.40000	-0.1122	
877.60000	-0.1125	
877.80000	-0.1129	
878.00000	-0.1129	
878.20000	-0.1132	
878.40000	-0.1134	
878.60000	-0.1140	
878.80000	-0.1143	
879.00000	-0.1149	
879.20000	-0.1151	
879.40000	-0.1154	
879.60000	-0.1158	
879.80000	-0.1161	
880.00000	-0.1164	
880.20000	-0.1167	
880.40000	-0.1172	
880.60000	-0.1175	
880.80000	-0.1176	
881.00000	-0.1183	
881.20000	-0.1183	
881.40000	-0.1189	
881.60000	-0.1189	
881.80000	-0.1189	
882.00000	-0.1195	
882.20000	-0.1196	
882.40000	-0.1201	
882.60000	-0.1205	
882.80000	-0.1208	
883.00000	-0.1215	
883.20000	-0.1215	
883.40000	-0.1222	
883.60000	-0.1225	
883.80000	-0.1227	
884.00000	-0.1230	
884.20000	-0.1234	
884.40000	-0.1239	
884.60000	-0.1244	
884.80000	-0.1251	
885.00000	-0.1256	
885.20000	-0.1263	
885.40000	-0.1268	
885.60000	-0.1271	
885.80000	-0.1276	
886.00000	-0.1279	
886.20000	-0.1289	
886.40000	-0.1297	
886.60000	-0.1302	
886.80000	-0.1308	
887.00000	-0.1312	
887.20000	-0.1317	
887.40000	-0.1324	
887.60000	-0.1331	
887.80000	-0.1335	
888.00000	-0.1338	
888.20000	-0.1341	
888.40000	-0.1349	
888.60000	-0.1357	
888.80000	-0.1360	
889.00000	-0.1366	
889.20000	-0.1373	
889.40000	-0.1381	
889.60000	-0.1382	
889.80000	-0.1387	
890.00000	-0.1396	
890.20000	-0.1399	
890.40000	-0.1398	
890.60000	-0.1401	
890.80000	-0.1399	
891.00000	-0.1399	
891.20000	-0.1401	
891.40000	-0.1398	
891.60000	-0.1398	
891.80000	-0.1398	
892.00000	-0.1398	
892.20000	-0.1393	
892.40000	-0.1401	
892.60000	-0.1398	
892.80000	-0.1395	
893.00000	-0.1392	
893.20000	-0.1389	
893.40000	-0.1387	
893.60000	-0.1384	
893.80000	-0.1379	
894.00000	-0.1375	
894.20000	-0.1373	
894.40000	-0.1367	
894.60000	-0.1366	
894.80000	-0.1364	
895.00000	-0.1361	
895.20000	-0.1355	
895.40000	-0.1355	
895.60000	-0.1350	
895.80000	-0.1343	
896.00000	-0.1338	
896.20000	-0.1335	
896.40000	-0.1331	
896.60000	-0.1324	
896.80000	-0.1317	
897.00000	-0.1315	
897.20000	-0.1309	
897.40000	-0.1302	
897.60000	-0.1299	
897.80000	-0.1294	
898.00000	-0.1291	
898.20000	-0.1282	
898.40000	-0.1273	
898.60000	-0.1270	
898.80000	-0.1265	
899.00000	-0.1259	
899.20000	-0.1253	
899.40000	-0.1250	
899.60000	-0.1244	
899.80000	-0.1237	
900.00000	-0.1230	
900.20000	-0.1227	
900.40000	-0.1221	
900.60000	-0.1215	
900.80000	-0.1210	
901.00000	-0.1207	
901.20000	-0.1196	
901.40000	-0.1196	
901.60000	-0.1196	
901.80000	-0.1193	
902.00000	-0.1187	
902.20000	-0.1186	
902.40000	-0.1176	
902.60000	-0.1173	
902.80000	-0.1170	
903.00000	-0.1170	
903.20000	-0.1169	
903.40000	-0.1164	
903.60000	-0.1163	
903.80000	-0.1158	
904.00000	-0.1152	
904.20000	-0.1152	
904.40000	-0.1147	
904.60000	-0.1146	
904.80000	-0.1144	
905.00000	-0.1144	
905.20000	-0.1140	
905.40000	-0.1137	
905.60000	-0.1137	
905.80000	-0.1134	
906.00000	-0.1134	
906.20000	-0.1129	
906.40000	-0.1125	
906.60000	-0.1123	
906.80000	-0.1122	
907.00000	-0.1115	
907.20000	-0.1106	
907.40000	-0.1100	
907.60000	-0.1096	
907.80000	-0.1086	
908.00000	-0.1082	
908.20000	-0.1076	
908.40000	-0.1068	
908.60000	-0.1059	
908.80000	-0.1056	
909.00000	-0.1047	
909.20000	-0.1038	
909.40000	-0.1033	
909.60000	-0.1022	
909.80000	-0.1016	
910.00000	-0.1006	
910.20000	-0.0996	
910.40000	-0.0987	
910.60000	-0.0978	
910.80000	-0.0970	
911.00000	-0.0957	
911.20000	-0.0952	
911.40000	-0.0943	
911.60000	-0.0934	
911.80000	-0.0925	
912.00000	-0.0917	
912.20000	-0.0908	
912.40000	-0.0900	
912.60000	-0.0893	
912.80000	-0.0882	
913.00000	-0.0873	
913.20000	-0.0865	
913.40000	-0.0854	
913.60000	-0.0848	
913.80000	-0.0841	
914.00000	-0.0833	
914.20000	-0.0826	
914.40000	-0.0818	
914.60000	-0.0810	
914.80000	-0.0801	
915.00000	-0.0790	
915.20000	-0.0783	
915.40000	-0.0777	
915.60000	-0.0769	
915.80000	-0.0763	
916.00000	-0.0760	
916.20000	-0.0749	
916.40000	-0.0742	
916.60000	-0.0735	
916.80000	-0.0731	
917.00000	-0.0723	
917.20000	-0.0717	
917.40000	-0.0710	
917.60000	-0.0705	
917.80000	-0.0697	
918.00000	-0.0696	
918.20000	-0.0688	
918.40000	-0.0687	
918.60000	-0.0685	
918.80000	-0.0679	
919.00000	-0.0676	
919.20000	-0.0667	
919.40000	-0.0664	
919.60000	-0.0659	
919.80000	-0.0662	
920.00000	-0.0659	
920.20000	-0.0653	
920.40000	-0.0652	
920.60000	-0.0650	
920.80000	-0.0644	
921.00000	-0.0644	
921.20000	-0.0639	
921.40000	-0.0638	
921.60000	-0.0638	
921.80000	-0.0632	
922.00000	-0.0630	
922.20000	-0.0632	
922.40000	-0.0627	
922.60000	-0.0630	
922.80000	-0.0627	
923.00000	-0.0623	
923.20000	-0.0621	
923.40000	-0.0623	
923.60000	-0.0620	
923.80000	-0.0613	
924.00000	-0.0609	
924.20000	-0.0601	
924.40000	-0.0598	
924.60000	-0.0592	
924.80000	-0.0587	
925.00000	-0.0586	
925.20000	-0.0578	
925.40000	-0.0571	
925.60000	-0.0566	
925.80000	-0.0562	
926.00000	-0.0557	
926.20000	-0.0551	
926.40000	-0.0546	
926.60000	-0.0536	
926.80000	-0.0528	
927.00000	-0.0519	
927.20000	-0.0510	
927.40000	-0.0507	
927.60000	-0.0496	
927.80000	-0.0491	
928.00000	-0.0482	
928.20000	-0.0473	
928.40000	-0.0465	
928.60000	-0.0462	
928.80000	-0.0458	
929.00000	-0.0452	
929.20000	-0.0446	
929.40000	-0.0438	
929.60000	-0.0430	
929.80000	-0.0423	
930.00000	-0.0412	
930.20000	-0.0410	
930.40000	-0.0404	
930.60000	-0.0398	
930.80000	-0.0389	
931.00000	-0.0383	
931.20000	-0.0380	
931.40000	-0.0372	
931.60000	-0.0365	
931.80000	-0.0356	
932.00000	-0.0352	
932.20000	-0.0343	
932.40000	-0.0336	
932.60000	-0.0334	
932.80000	-0.0327	
933.00000	-0.0319	
933.20000	-0.0314	
933.40000	-0.0305	
933.60000	-0.0301	
933.80000	-0.0296	
934.00000	-0.0288	
934.20000	-0.0288	
934.40000	-0.0281	
934.60000	-0.0278	
934.80000	-0.0278	
935.00000	-0.0273	
935.20000	-0.0270	
935.40000	-0.0269	
935.60000	-0.0264	
935.80000	-0.0261	
936.00000	-0.0259	
936.20000	-0.0258	
936.40000	-0.0261	
936.60000	-0.0256	
936.80000	-0.0256	
937.00000	-0.0253	
937.20000	-0.0250	
937.40000	-0.0252	
937.60000	-0.0250	
937.80000	-0.0252	
938.00000	-0.0252	
938.20000	-0.0250	
938.40000	-0.0249	
938.60000	-0.0250	
938.80000	-0.0252	
939.00000	-0.0249	
939.20000	-0.0252	
939.40000	-0.0250	
939.60000	-0.0250	
939.80000	-0.0249	
940.00000	-0.0249	
940.20000	-0.0250	
940.40000	-0.0246	
940.60000	-0.0241	
940.80000	-0.0238	
941.00000	-0.0232	
941.20000	-0.0232	
941.40000	-0.0230	
941.60000	-0.0226	
941.80000	-0.0224	
942.00000	-0.0220	
942.20000	-0.0217	
942.40000	-0.0217	
942.60000	-0.0211	
942.80000	-0.0208	
943.00000	-0.0200	
943.20000	-0.0195	
943.40000	-0.0191	
943.60000	-0.0182	
943.80000	-0.0177	
944.00000	-0.0171	
944.20000	-0.0169	
944.40000	-0.0165	
944.60000	-0.0160	
944.80000	-0.0156	
945.00000	-0.0153	
945.20000	-0.0145	
945.40000	-0.0145	
945.60000	-0.0136	
945.80000	-0.0136	
946.00000	-0.0131	
946.20000	-0.0124	
946.40000	-0.0122	
946.60000	-0.0114	
946.80000	-0.0108	
947.00000	-0.0105	
947.20000	-0.0101	
947.40000	-0.0099	
947.60000	-0.0098	
947.80000	-0.0092	
948.00000	-0.0089	
948.20000	-0.0084	
948.40000	-0.0076	
948.60000	-0.0078	
948.80000	-0.0072	
949.00000	-0.0066	
949.20000	-0.0064	
949.40000	-0.0063	
949.60000	-0.0056	
949.80000	-0.0058	
950.00000	-0.0055	
950.20000	-0.0052	
950.40000	-0.0047	
950.60000	-0.0046	
950.80000	-0.0046	
951.00000	-0.0046	
951.20000	-0.0041	
951.40000	-0.0043	
951.60000	-0.0044	
951.80000	-0.0047	
952.00000	-0.0047	
952.20000	-0.0047	
952.40000	-0.0050	
952.60000	-0.0047	
952.80000	-0.0052	
953.00000	-0.0056	
953.20000	-0.0058	
953.40000	-0.0060	
953.60000	-0.0061	
953.80000	-0.0066	
954.00000	-0.0066	
954.20000	-0.0069	
954.40000	-0.0072	
954.60000	-0.0078	
954.80000	-0.0079	
955.00000	-0.0079	
955.20000	-0.0079	
955.40000	-0.0085	
955.60000	-0.0089	
955.80000	-0.0092	
956.00000	-0.0098	
956.20000	-0.0099	
956.40000	-0.0101	
956.60000	-0.0102	
956.80000	-0.0107	
957.00000	-0.0107	
957.20000	-0.0105	
957.40000	-0.0105	
957.60000	-0.0105	
957.80000	-0.0105	
958.00000	-0.0107	
958.20000	-0.0108	
958.40000	-0.0107	
958.60000	-0.0105	
958.80000	-0.0108	
959.00000	-0.0110	
959.20000	-0.0108	
959.40000	-0.0111	
959.60000	-0.0111	
959.80000	-0.0111	
960.00000	-0.0107	
960.20000	-0.0104	
960.40000	-0.0102	
960.60000	-0.0099	
960.80000	-0.0093	
961.00000	-0.0090	
961.20000	-0.0087	
961.40000	-0.0085	
961.60000	-0.0082	
961.80000	-0.0079	
962.00000	-0.0081	
962.20000	-0.0076	
962.40000	-0.0076	
962.60000	-0.0072	
962.80000	-0.0070	
963.00000	-0.0067	
963.20000	-0.0064	
963.40000	-0.0060	
963.60000	-0.0060	
963.80000	-0.0058	
964.00000	-0.0056	
964.20000	-0.0058	
964.40000	-0.0055	
964.60000	-0.0052	
964.80000	-0.0052	
965.00000	-0.0050	
965.20000	-0.0049	
965.40000	-0.0043	
965.60000	-0.0046	
965.80000	-0.0047	
966.00000	-0.0046	
966.20000	-0.0046	
966.40000	-0.0044	
966.60000	-0.0046	
966.80000	-0.0041	
967.00000	-0.0040	
967.20000	-0.0043	
967.40000	-0.0044	
967.60000	-0.0043	
967.80000	-0.0043	
968.00000	-0.0047	
968.20000	-0.0047	
968.40000	-0.0052	
968.60000	-0.0055	
968.80000	-0.0060	
969.00000	-0.0060	
969.20000	-0.0058	
969.40000	-0.0063	
969.60000	-0.0069	
969.80000	-0.0073	
970.00000	-0.0076	
970.20000	-0.0081	
970.40000	-0.0081	
970.60000	-0.0087	
970.80000	-0.0087	
971.00000	-0.0090	
971.20000	-0.0093	
971.40000	-0.0098	
971.60000	-0.0102	
971.80000	-0.0105	
972.00000	-0.0108	
972.20000	-0.0110	
972.40000	-0.0116	
972.60000	-0.0121	
972.80000	-0.0124	
973.00000	-0.0128	
973.20000	-0.0133	
973.40000	-0.0140	
973.60000	-0.0137	
973.80000	-0.0137	
974.00000	-0.0137	
974.20000	-0.0140	
974.40000	-0.0140	
974.60000	-0.0140	
974.80000	-0.0137	
975.00000	-0.0142	
975.20000	-0.0143	
975.40000	-0.0145	
975.60000	-0.0142	
975.80000	-0.0148	
976.00000	-0.0151	
976.20000	-0.0150	
976.40000	-0.0151	
976.60000	-0.0148	
976.80000	-0.0145	
977.00000	-0.0145	
977.20000	-0.0137	
977.40000	-0.0137	
977.60000	-0.0140	
977.80000	-0.0136	
978.00000	-0.0134	
978.20000	-0.0133	
978.40000	-0.0128	
978.60000	-0.0127	
978.80000	-0.0125	
979.00000	-0.0124	
979.20000	-0.0122	
979.40000	-0.0124	
979.60000	-0.0124	
979.80000	-0.0119	
980.00000	-0.0116	
980.20000	-0.0114	
980.40000	-0.0111	
980.60000	-0.0111	
980.80000	-0.0113	
981.00000	-0.0111	
981.20000	-0.0110	
981.40000	-0.0111	
981.60000	-0.0108	
981.80000	-0.0105	
982.00000	-0.0101	
982.20000	-0.0104	
982.40000	-0.0101	
982.60000	-0.0102	
982.80000	-0.0104	
983.00000	-0.0104	
983.20000	-0.0105	
983.40000	-0.0105	
983.60000	-0.0101	
983.80000	-0.0104	
984.00000	-0.0101	
984.20000	-0.0102	
984.40000	-0.0104	
984.60000	-0.0105	
984.80000	-0.0105	
985.00000	-0.0108	
985.20000	-0.0111	
985.40000	-0.0111	
985.60000	-0.0114	
985.80000	-0.0114	
986.00000	-0.0119	
986.20000	-0.0121	
986.40000	-0.0128	
986.60000	-0.0128	
986.80000	-0.0130	
987.00000	-0.0133	
987.20000	-0.0134	
987.40000	-0.0137	
987.60000	-0.0142	
987.80000	-0.0148	
988.00000	-0.0153	
988.20000	-0.0154	
988.40000	-0.0163	
988.60000	-0.0166	
988.80000	-0.0171	
989.00000	-0.0171	
989.20000	-0.0175	
989.40000	-0.0182	
989.60000	-0.0183	
989.80000	-0.0186	
990.00000	-0.0194	
990.20000	-0.0194	
990.40000	-0.0194	
990.60000	-0.0194	
990.80000	-0.0192	
991.00000	-0.0192	
991.20000	-0.0192	
991.40000	-0.0191	
991.60000	-0.0192	
991.80000	-0.0192	
992.00000	-0.0197	
992.20000	-0.0195	
992.40000	-0.0191	
992.60000	-0.0192	
992.80000	-0.0197	
993.00000	-0.0197	
993.20000	-0.0204	
993.40000	-0.0200	
993.60000	-0.0203	
993.80000	-0.0200	
994.00000	-0.0197	
994.20000	-0.0197	
994.40000	-0.0191	
994.60000	-0.0192	
994.80000	-0.0188	
995.00000	-0.0186	
995.20000	-0.0186	
995.40000	-0.0183	
995.60000	-0.0182	
995.80000	-0.0177	
996.00000	-0.0177	
996.20000	-0.0174	
996.40000	-0.0169	
996.60000	-0.0165	
996.80000	-0.0157	
997.00000	-0.0162	
997.20000	-0.0156	
997.40000	-0.0156	
997.60000	-0.0154	
997.80000	-0.0151	
998.00000	-0.0151	
998.20000	-0.0151	
998.40000	-0.0145	
998.60000	-0.0142	
998.80000	-0.0143	
999.00000	-0.0142	
999.20000	-0.0142	
999.40000	-0.0137	
999.60000	-0.0137	
999.80000	-0.0140	
1000.00000	-0.0136	
1000.20000	-0.0136	
1000.40000	-0.0137	
1000.60000	-0.0134	
1000.80000	-0.0131	
1001.00000	-0.0134	
1001.20000	-0.0134	
1001.40000	-0.0136	
1001.60000	-0.0137	
1001.80000	-0.0143	
1002.00000	-0.0145	
1002.20000	-0.0148	
1002.40000	-0.0146	
1002.60000	-0.0150	
1002.80000	-0.0153	
1003.00000	-0.0157	
1003.20000	-0.0156	
1003.40000	-0.0162	
1003.60000	-0.0163	
1003.80000	-0.0162	
1004.00000	-0.0165	
1004.20000	-0.0169	
1004.40000	-0.0171	
1004.60000	-0.0174	
1004.80000	-0.0177	
1005.00000	-0.0182	
1005.20000	-0.0183	
1005.40000	-0.0189	
1005.60000	-0.0192	
1005.80000	-0.0197	
1006.00000	-0.0200	
1006.20000	-0.0204	
1006.40000	-0.0209	
1006.60000	-0.0211	
1006.80000	-0.0214	
1007.00000	-0.0212	
1007.20000	-0.0215	
1007.40000	-0.0215	
1007.60000	-0.0214	
1007.80000	-0.0212	
1008.00000	-0.0215	
1008.20000	-0.0217	
1008.40000	-0.0215	
1008.60000	-0.0215	
1008.80000	-0.0217	
1009.00000	-0.0217	
1009.20000	-0.0218	
1009.40000	-0.0220	
1009.60000	-0.0224	
1009.80000	-0.0226	
1010.00000	-0.0224	
1010.20000	-0.0227	
1010.40000	-0.0221	
1010.60000	-0.0215	
1010.80000	-0.0212	
1011.00000	-0.0209	
1011.20000	-0.0206	
1011.40000	-0.0204	
1011.60000	-0.0197	
1011.80000	-0.0197	
1012.00000	-0.0195	
1012.20000	-0.0191	
1012.40000	-0.0188	
1012.60000	-0.0188	
1012.80000	-0.0183	
1013.00000	-0.0182	
1013.20000	-0.0177	
1013.40000	-0.0174	
1013.60000	-0.0169	
1013.80000	-0.0169	
1014.00000	-0.0168	
1014.20000	-0.0166	
1014.40000	-0.0166	
1014.60000	-0.0163	
1014.80000	-0.0165	
1015.00000	-0.0160	
1015.20000	-0.0157	
1015.40000	-0.0157	
1015.60000	-0.0156	
1015.80000	-0.0153	
1016.00000	-0.0151	
1016.20000	-0.0153	
1016.40000	-0.0150	
1016.60000	-0.0150	
1016.80000	-0.0145	
1017.00000	-0.0145	
1017.20000	-0.0146	
1017.40000	-0.0145	
1017.60000	-0.0146	
1017.80000	-0.0145	
1018.00000	-0.0148	
1018.20000	-0.0151	
1018.40000	-0.0151	
1018.60000	-0.0156	
1018.80000	-0.0156	
1019.00000	-0.0153	
1019.20000	-0.0154	
1019.40000	-0.0156	
1019.60000	-0.0160	
1019.80000	-0.0165	
1020.00000	-0.0166	
1020.20000	-0.0169	
1020.40000	-0.0171	
1020.60000	-0.0172	
1020.80000	-0.0179	
1021.00000	-0.0182	
1021.20000	-0.0182	
1021.40000	-0.0186	
1021.60000	-0.0191	
1021.80000	-0.0192	
1022.00000	-0.0194	
1022.20000	-0.0203	
1022.40000	-0.0206	
1022.60000	-0.0209	
1022.80000	-0.0212	
1023.00000	-0.0217	
1023.20000	-0.0220	
1023.40000	-0.0226	
1023.60000	-0.0229	
1023.80000	-0.0227	
1024.00000	-0.0227	
1024.20000	-0.0226	
1024.40000	-0.0229	
1024.60000	-0.0230	
1024.80000	-0.0229	
1025.00000	-0.0229	
1025.20000	-0.0227	
1025.40000	-0.0229	
1025.60000	-0.0227	
1025.80000	-0.0226	
1026.00000	-0.0230	
1026.20000	-0.0232	
1026.40000	-0.0232	
1026.60000	-0.0229	
1026.80000	-0.0226	
1027.00000	-0.0224	
1027.20000	-0.0221	
1027.40000	-0.0218	
1027.60000	-0.0217	
1027.80000	-0.0215	
1028.00000	-0.0209	
1028.20000	-0.0204	
1028.40000	-0.0198	
1028.60000	-0.0200	
1028.80000	-0.0194	
1029.00000	-0.0195	
1029.20000	-0.0191	
1029.40000	-0.0186	
1029.60000	-0.0183	
1029.80000	-0.0175	
1030.00000	-0.0175	
1030.20000	-0.0171	
1030.40000	-0.0165	
1030.60000	-0.0165	
1030.80000	-0.0162	
1031.00000	-0.0156	
1031.20000	-0.0157	
1031.40000	-0.0160	
1031.60000	-0.0157	
1031.80000	-0.0151	
1032.00000	-0.0150	
1032.20000	-0.0150	
1032.40000	-0.0146	
1032.60000	-0.0146	
1032.80000	-0.0150	
1033.00000	-0.0150	
1033.20000	-0.0146	
1033.40000	-0.0146	
1033.60000	-0.0145	
1033.80000	-0.0148	
1034.00000	-0.0146	
1034.20000	-0.0143	
1034.40000	-0.0142	
1034.60000	-0.0146	
1034.80000	-0.0148	
1035.00000	-0.0150	
1035.20000	-0.0151	
1035.40000	-0.0151	
1035.60000	-0.0151	
1035.80000	-0.0153	
1036.00000	-0.0154	
1036.20000	-0.0160	
1036.40000	-0.0163	
1036.60000	-0.0166	
1036.80000	-0.0168	
1037.00000	-0.0169	
1037.20000	-0.0171	
1037.40000	-0.0177	
1037.60000	-0.0175	
1037.80000	-0.0182	
1038.00000	-0.0183	
1038.20000	-0.0188	
1038.40000	-0.0191	
1038.60000	-0.0194	
1038.80000	-0.0197	
1039.00000	-0.0200	
1039.20000	-0.0206	
1039.40000	-0.0209	
1039.60000	-0.0211	
1039.80000	-0.0215	
1040.00000	-0.0217	
1040.20000	-0.0217	
1040.40000	-0.0220	
1040.60000	-0.0220	
1040.80000	-0.0218	
1041.00000	-0.0218	
1041.20000	-0.0217	
1041.40000	-0.0217	
1041.60000	-0.0218	
1041.80000	-0.0218	
1042.00000	-0.0218	
1042.20000	-0.0218	
1042.40000	-0.0214	
1042.60000	-0.0224	
1042.80000	-0.0226	
1043.00000	-0.0227	
1043.20000	-0.0227	
1043.40000	-0.0224	
1043.60000	-0.0226	
1043.80000	-0.0221	
1044.00000	-0.0218	
1044.20000	-0.0214	
1044.40000	-0.0212	
1044.60000	-0.0204	
1044.80000	-0.0203	
1045.00000	-0.0203	
1045.20000	-0.0197	
1045.40000	-0.0197	
1045.60000	-0.0194	
1045.80000	-0.0192	
1046.00000	-0.0189	
1046.20000	-0.0189	
1046.40000	-0.0185	
1046.60000	-0.0177	
1046.80000	-0.0177	
1047.00000	-0.0175	
1047.20000	-0.0171	
1047.40000	-0.0172	
1047.60000	-0.0171	
1047.80000	-0.0168	
1048.00000	-0.0168	
1048.20000	-0.0169	
1048.40000	-0.0162	
1048.60000	-0.0160	
1048.80000	-0.0156	
1049.00000	-0.0156	
1049.20000	-0.0154	
1049.40000	-0.0154	
1049.60000	-0.0156	
1049.80000	-0.0157	
1050.00000	-0.0154	
1050.20000	-0.0156	
1050.40000	-0.0153	
1050.60000	-0.0153	
1050.80000	-0.0153	
1051.00000	-0.0151	
1051.20000	-0.0151	
1051.40000	-0.0157	
1051.60000	-0.0160	
1051.80000	-0.0162	
1052.00000	-0.0160	
1052.20000	-0.0162	
1052.40000	-0.0157	
1052.60000	-0.0162	
1052.80000	-0.0165	
1053.00000	-0.0168	
1053.20000	-0.0171	
1053.40000	-0.0172	
1053.60000	-0.0175	
1053.80000	-0.0179	
1054.00000	-0.0182	
1054.20000	-0.0185	
1054.40000	-0.0188	
1054.60000	-0.0191	
1054.80000	-0.0195	
1055.00000	-0.0198	
1055.20000	-0.0200	
1055.40000	-0.0209	
1055.60000	-0.0209	
1055.80000	-0.0214	
1056.00000	-0.0217	
1056.20000	-0.0217	
1056.40000	-0.0221	
1056.60000	-0.0227	
1056.80000	-0.0229	
1057.00000	-0.0229	
1057.20000	-0.0230	
1057.40000	-0.0227	
1057.60000	-0.0227	
1057.80000	-0.0227	
1058.00000	-0.0230	
1058.20000	-0.0229	
1058.40000	-0.0227	
1058.60000	-0.0233	
1058.80000	-0.0233	
1059.00000	-0.0230	
1059.20000	-0.0235	
1059.40000	-0.0237	
1059.60000	-0.0237	
1059.80000	-0.0241	
1060.00000	-0.0238	
1060.20000	-0.0237	
1060.40000	-0.0235	
1060.60000	-0.0229	
1060.80000	-0.0224	
1061.00000	-0.0220	
1061.20000	-0.0218	
1061.40000	-0.0215	
1061.60000	-0.0214	
1061.80000	-0.0209	
1062.00000	-0.0209	
1062.20000	-0.0209	
1062.40000	-0.0209	
1062.60000	-0.0204	
1062.80000	-0.0198	
1063.00000	-0.0198	
1063.20000	-0.0194	
1063.40000	-0.0189	
1063.60000	-0.0189	
1063.80000	-0.0186	
1064.00000	-0.0185	
1064.20000	-0.0182	
1064.40000	-0.0177	
1064.60000	-0.0179	
1064.80000	-0.0174	
1065.00000	-0.0174	
1065.20000	-0.0171	
1065.40000	-0.0169	
1065.60000	-0.0166	
1065.80000	-0.0166	
1066.00000	-0.0166	
1066.20000	-0.0166	
1066.40000	-0.0166	
1066.60000	-0.0163	
1066.80000	-0.0163	
1067.00000	-0.0162	
1067.20000	-0.0157	
1067.40000	-0.0157	
1067.60000	-0.0160	
1067.80000	-0.0157	
1068.00000	-0.0157	
1068.20000	-0.0157	
1068.40000	-0.0163	
1068.60000	-0.0163	
1068.80000	-0.0168	
1069.00000	-0.0165	
1069.20000	-0.0169	
1069.40000	-0.0169	
1069.60000	-0.0175	
1069.80000	-0.0182	
1070.00000	-0.0186	
1070.20000	-0.0191	
1070.40000	-0.0191	
1070.60000	-0.0194	
1070.80000	-0.0198	
1071.00000	-0.0198	
1071.20000	-0.0204	
1071.40000	-0.0211	
1071.60000	-0.0212	
1071.80000	-0.0211	
1072.00000	-0.0215	
1072.20000	-0.0221	
1072.40000	-0.0220	
1072.60000	-0.0224	
1072.80000	-0.0229	
1073.00000	-0.0230	
1073.20000	-0.0233	
1073.40000	-0.0238	
1073.60000	-0.0235	
1073.80000	-0.0237	
1074.00000	-0.0238	
1074.20000	-0.0237	
1074.40000	-0.0237	
1074.60000	-0.0232	
1074.80000	-0.0237	
1075.00000	-0.0235	
1075.20000	-0.0232	
1075.40000	-0.0237	
1075.60000	-0.0230	
1075.80000	-0.0233	
1076.00000	-0.0238	
1076.20000	-0.0237	
1076.40000	-0.0235	
1076.60000	-0.0230	
1076.80000	-0.0230	
1077.00000	-0.0229	
1077.20000	-0.0224	
1077.40000	-0.0221	
1077.60000	-0.0218	
1077.80000	-0.0218	
1078.00000	-0.0214	
1078.20000	-0.0212	
1078.40000	-0.0204	
1078.60000	-0.0204	
1078.80000	-0.0203	
1079.00000	-0.0203	
1079.20000	-0.0203	
1079.40000	-0.0197	
1079.60000	-0.0194	
1079.80000	-0.0191	
1080.00000	-0.0186	
1080.20000	-0.0185	
1080.40000	-0.0183	
1080.60000	-0.0183	
1080.80000	-0.0177	
1081.00000	-0.0175	
1081.20000	-0.0175	
1081.40000	-0.0179	
1081.60000	-0.0174	
1081.80000	-0.0168	
1082.00000	-0.0168	
1082.20000	-0.0163	
1082.40000	-0.0160	
1082.60000	-0.0162	
1082.80000	-0.0163	
1083.00000	-0.0163	
1083.20000	-0.0162	
1083.40000	-0.0160	
1083.60000	-0.0156	
1083.80000	-0.0156	
1084.00000	-0.0156	
1084.20000	-0.0154	
1084.40000	-0.0154	
1084.60000	-0.0157	
1084.80000	-0.0160	
1085.00000	-0.0160	
1085.20000	-0.0162	
1085.40000	-0.0163	
1085.60000	-0.0162	
1085.80000	-0.0165	
1086.00000	-0.0165	
1086.20000	-0.0166	
1086.40000	-0.0174	
1086.60000	-0.0174	
1086.80000	-0.0172	
1087.00000	-0.0177	
1087.20000	-0.0183	
1087.40000	-0.0185	
1087.60000	-0.0188	
1087.80000	-0.0191	
1088.00000	-0.0192	
1088.20000	-0.0198	
1088.40000	-0.0203	
1088.60000	-0.0204	
1088.80000	-0.0209	
1089.00000	-0.0212	
1089.20000	-0.0217	
1089.40000	-0.0218	
1089.60000	-0.0220	
1089.80000	-0.0226	
1090.00000	-0.0230	
1090.20000	-0.0235	
1090.40000	-0.0230	
1090.60000	-0.0232	
1090.80000	-0.0232	
1091.00000	-0.0229	
1091.20000	-0.0232	
1091.40000	-0.0230	
1091.60000	-0.0230	
1091.80000	-0.0233	
1092.00000	-0.0233	
1092.20000	-0.0232	
1092.40000	-0.0230	
1092.60000	-0.0233	
1092.80000	-0.0235	
1093.00000	-0.0230	
1093.20000	-0.0230	
1093.40000	-0.0227	
1093.60000	-0.0226	
1093.80000	-0.0221	
1094.00000	-0.0218	
1094.20000	-0.0217	
1094.40000	-0.0215	
1094.60000	-0.0214	
1094.80000	-0.0212	
1095.00000	-0.0212	
1095.20000	-0.0211	
1095.40000	-0.0211	
1095.60000	-0.0209	
1095.80000	-0.0206	
1096.00000	-0.0203	
1096.20000	-0.0197	
1096.40000	-0.0197	
1096.60000	-0.0194	
1096.80000	-0.0188	
1097.00000	-0.0186	
1097.20000	-0.0183	
1097.40000	-0.0183	
1097.60000	-0.0179	
1097.80000	-0.0179	
1098.00000	-0.0175	
1098.20000	-0.0177	
1098.40000	-0.0171	
1098.60000	-0.0169	
1098.80000	-0.0169	
1099.00000	-0.0163	
1099.20000	-0.0165	
1099.40000	-0.0165	
1099.60000	-0.0160	
1099.80000	-0.0162	
1100.00000	-0.0162	
1100.20000	-0.0157	
1100.40000	-0.0154	
1100.60000	-0.0156	
1100.80000	-0.0154	
1101.00000	-0.0153	
1101.20000	-0.0153	
1101.40000	-0.0156	
1101.60000	-0.0157	
1101.80000	-0.0162	
1102.00000	-0.0165	
1102.20000	-0.0166	
1102.40000	-0.0165	
1102.60000	-0.0166	
1102.80000	-0.0168	
1103.00000	-0.0171	
1103.20000	-0.0174	
1103.40000	-0.0182	
1103.60000	-0.0182	
1103.80000	-0.0183	
1104.00000	-0.0186	
1104.20000	-0.0188	
1104.40000	-0.0192	
1104.60000	-0.0197	
1104.80000	-0.0200	
1105.00000	-0.0200	
1105.20000	-0.0204	
1105.40000	-0.0209	
1105.60000	-0.0214	
1105.80000	-0.0218	
1106.00000	-0.0224	
1106.20000	-0.0226	
1106.40000	-0.0226	
1106.60000	-0.0229	
1106.80000	-0.0233	
1107.00000	-0.0235	
1107.20000	-0.0229	
1107.40000	-0.0233	
1107.60000	-0.0232	
1107.80000	-0.0232	
1108.00000	-0.0237	
1108.20000	-0.0235	
1108.40000	-0.0235	
1108.60000	-0.0233	
1108.80000	-0.0237	
1109.00000	-0.0235	
1109.20000	-0.0237	
1109.40000	-0.0235	
1109.60000	-0.0237	
1109.80000	-0.0240	
1110.00000	-0.0238	
1110.20000	-0.0240	
1110.40000	-0.0241	
1110.60000	-0.0235	
1110.80000	-0.0232	
1111.00000	-0.0227	
1111.20000	-0.0220	
1111.40000	-0.0220	
1111.60000	-0.0215	
1111.80000	-0.0214	
1112.00000	-0.0212	
1112.20000	-0.0211	
1112.40000	-0.0209	
1112.60000	-0.0206	
1112.80000	-0.0204	
1113.00000	-0.0198	
1113.20000	-0.0195	
1113.40000	-0.0189	
1113.60000	-0.0189	
1113.80000	-0.0188	
1114.00000	-0.0185	
1114.20000	-0.0186	
1114.40000	-0.0183	
1114.60000	-0.0177	
1114.80000	-0.0182	
1115.00000	-0.0175	
1115.20000	-0.0172	
1115.40000	-0.0171	
1115.60000	-0.0171	
1115.80000	-0.0166	
1116.00000	-0.0168	
1116.20000	-0.0165	
1116.40000	-0.0168	
1116.60000	-0.0166	
1116.80000	-0.0163	
1117.00000	-0.0165	
1117.20000	-0.0163	
1117.40000	-0.0162	
1117.60000	-0.0160	
1117.80000	-0.0162	
1118.00000	-0.0160	
1118.20000	-0.0163	
1118.40000	-0.0168	
1118.60000	-0.0166	
1118.80000	-0.0168	
1119.00000	-0.0168	
1119.20000	-0.0168	
1119.40000	-0.0169	
1119.60000	-0.0175	
1119.80000	-0.0182	
1120.00000	-0.0182	
1120.20000	-0.0188	
1120.40000	-0.0189	
1120.60000	-0.0192	
1120.80000	-0.0192	
1121.00000	-0.0195	
1121.20000	-0.0197	
1121.40000	-0.0203	
1121.60000	-0.0208	
1121.80000	-0.0211	
1122.00000	-0.0212	
1122.20000	-0.0217	
1122.40000	-0.0220	
1122.60000	-0.0226	
1122.80000	-0.0227	
1123.00000	-0.0229	
1123.20000	-0.0230	
1123.40000	-0.0233	
1123.60000	-0.0237	
1123.80000	-0.0233	
1124.00000	-0.0233	
1124.20000	-0.0233	
1124.40000	-0.0230	
1124.60000	-0.0237	
1124.80000	-0.0238	
1125.00000	-0.0240	
1125.20000	-0.0238	
1125.40000	-0.0238	
1125.60000	-0.0237	
1125.80000	-0.0232	
1126.00000	-0.0237	
1126.20000	-0.0237	
1126.40000	-0.0238	
1126.60000	-0.0240	
1126.80000	-0.0237	
1127.00000	-0.0238	
1127.20000	-0.0238	
1127.40000	-0.0235	
1127.60000	-0.0226	
1127.80000	-0.0226	
1128.00000	-0.0220	
1128.20000	-0.0217	
1128.40000	-0.0211	
1128.60000	-0.0214	
1128.80000	-0.0209	
1129.00000	-0.0209	
1129.20000	-0.0206	
1129.40000	-0.0204	
1129.60000	-0.0200	
1129.80000	-0.0197	
1130.00000	-0.0195	
1130.20000	-0.0195	
1130.40000	-0.0189	
1130.60000	-0.0188	
1130.80000	-0.0185	
1131.00000	-0.0185	
1131.20000	-0.0182	
1131.40000	-0.0182	
1131.60000	-0.0177	
1131.80000	-0.0174	
1132.00000	-0.0174	
1132.20000	-0.0171	
1132.40000	-0.0166	
1132.60000	-0.0171	
1132.80000	-0.0168	
1133.00000	-0.0168	
1133.20000	-0.0166	
1133.40000	-0.0163	
1133.60000	-0.0163	
1133.80000	-0.0160	
1134.00000	-0.0156	
1134.20000	-0.0157	
1134.40000	-0.0154	
1134.60000	-0.0157	
1134.80000	-0.0162	
1135.00000	-0.0157	
1135.20000	-0.0162	
1135.40000	-0.0165	
1135.60000	-0.0163	
1135.80000	-0.0163	
1136.00000	-0.0165	
1136.20000	-0.0168	
1136.40000	-0.0174	
1136.60000	-0.0177	
1136.80000	-0.0177	
1137.00000	-0.0177	
1137.20000	-0.0185	
1137.40000	-0.0183	
1137.60000	-0.0191	
1137.80000	-0.0195	
1138.00000	-0.0198	
1138.20000	-0.0200	
1138.40000	-0.0204	
1138.60000	-0.0208	
1138.80000	-0.0212	
1139.00000	-0.0215	
1139.20000	-0.0221	
1139.40000	-0.0226	
1139.60000	-0.0227	
1139.80000	-0.0232	
1140.00000	-0.0233	
1140.20000	-0.0238	
1140.40000	-0.0238	
1140.60000	-0.0238	
1140.80000	-0.0238	
1141.00000	-0.0238	
1141.20000	-0.0235	
1141.40000	-0.0237	
1141.60000	-0.0237	
1141.80000	-0.0235	
1142.00000	-0.0232	
1142.20000	-0.0237	
1142.40000	-0.0230	
1142.60000	-0.0235	
1142.80000	-0.0237	
1143.00000	-0.0238	
1143.20000	-0.0237	
1143.40000	-0.0235	
1143.60000	-0.0238	
1143.80000	-0.0235	
1144.00000	-0.0227	
1144.20000	-0.0221	
1144.40000	-0.0221	
1144.60000	-0.0215	
1144.80000	-0.0215	
1145.00000	-0.0211	
1145.20000	-0.0208	
1145.40000	-0.0206	
1145.60000	-0.0204	
1145.80000	-0.0200	
1146.00000	-0.0195	
1146.20000	-0.0194	
1146.40000	-0.0188	
1146.60000	-0.0185	
1146.80000	-0.0182	
1147.00000	-0.0182	
1147.20000	-0.0179	
1147.40000	-0.0175	
1147.60000	-0.0175	
1147.80000	-0.0174	
1148.00000	-0.0171	
1148.20000	-0.0172	
1148.40000	-0.0168	
1148.60000	-0.0168	
1148.80000	-0.0165	
1149.00000	-0.0162	
1149.20000	-0.0162	
1149.40000	-0.0160	
1149.60000	-0.0157	
1149.80000	-0.0160	
1150.00000	-0.0154	
1150.20000	-0.0153	
1150.40000	-0.0151	
1150.60000	-0.0148	
1150.80000	-0.0148	
1151.00000	-0.0146	
1151.20000	-0.0145	
1151.40000	-0.0150	
1151.60000	-0.0150	
1151.80000	-0.0151	
1152.00000	-0.0156	
1152.20000	-0.0154	
1152.40000	-0.0151	
1152.60000	-0.0154	
1152.80000	-0.0157	
1153.00000	-0.0160	
1153.20000	-0.0163	
1153.40000	-0.0165	
1153.60000	-0.0165	
1153.80000	-0.0169	
1154.00000	-0.0172	
1154.20000	-0.0177	
1154.40000	-0.0177	
1154.60000	-0.0186	
1154.80000	-0.0186	
1155.00000	-0.0189	
1155.20000	-0.0192	
1155.40000	-0.0197	
1155.60000	-0.0200	
1155.80000	-0.0204	
1156.00000	-0.0209	
1156.20000	-0.0211	
1156.40000	-0.0214	
1156.60000	-0.0217	
1156.80000	-0.0220	
1157.00000	-0.0217	
1157.20000	-0.0218	
1157.40000	-0.0218	
1157.60000	-0.0217	
1157.80000	-0.0218	
1158.00000	-0.0217	
1158.20000	-0.0218	
1158.40000	-0.0218	
1158.60000	-0.0217	
1158.80000	-0.0220	
1159.00000	-0.0218	
1159.20000	-0.0220	
1159.40000	-0.0221	
1159.60000	-0.0221	
1159.80000	-0.0224	
1160.00000	-0.0221	
1160.20000	-0.0215	
1160.40000	-0.0215	
1160.60000	-0.0211	
1160.80000	-0.0206	
1161.00000	-0.0206	
1161.20000	-0.0204	
1161.40000	-0.0198	
1161.60000	-0.0198	
1161.80000	-0.0194	
1162.00000	-0.0195	
1162.20000	-0.0194	
1162.40000	-0.0191	
1162.60000	-0.0191	
1162.80000	-0.0186	
1163.00000	-0.0182	
1163.20000	-0.0175	
1163.40000	-0.0172	
1163.60000	-0.0168	
1163.80000	-0.0166	
1164.00000	-0.0163	
1164.20000	-0.0163	
1164.40000	-0.0162	
1164.60000	-0.0160	
1164.80000	-0.0160	
1165.00000	-0.0154	
1165.20000	-0.0151	
1165.40000	-0.0151	
1165.60000	-0.0146	
1165.80000	-0.0148	
1166.00000	-0.0146	
1166.20000	-0.0145	
1166.40000	-0.0145	
1166.60000	-0.0143	
1166.80000	-0.0143	
1167.00000	-0.0142	
1167.20000	-0.0140	
1167.40000	-0.0137	
1167.60000	-0.0137	
1167.80000	-0.0137	
1168.00000	-0.0137	
1168.20000	-0.0137	
1168.40000	-0.0142	
1168.60000	-0.0143	
1168.80000	-0.0146	
1169.00000	-0.0145	
1169.20000	-0.0146	
1169.40000	-0.0150	
1169.60000	-0.0153	
1169.80000	-0.0157	
1170.00000	-0.0162	
1170.20000	-0.0165	
1170.40000	-0.0165	
1170.60000	-0.0169	
1170.80000	-0.0171	
1171.00000	-0.0174	
1171.20000	-0.0177	
1171.40000	-0.0177	
1171.60000	-0.0183	
1171.80000	-0.0188	
1172.00000	-0.0191	
1172.20000	-0.0195	
1172.40000	-0.0197	
1172.60000	-0.0200	
1172.80000	-0.0204	
1173.00000	-0.0208	
1173.20000	-0.0211	
1173.40000	-0.0214	
1173.60000	-0.0215	
1173.80000	-0.0215	
1174.00000	-0.0211	
1174.20000	-0.0211	
1174.40000	-0.0209	
1174.60000	-0.0211	
1174.80000	-0.0214	
1175.00000	-0.0214	
1175.20000	-0.0211	
1175.40000	-0.0209	
1175.60000	-0.0211	
1175.80000	-0.0209	
1176.00000	-0.0217	
1176.20000	-0.0214	
1176.40000	-0.0218	
1176.60000	-0.0217	
1176.80000	-0.0217	
1177.00000	-0.0215	
1177.20000	-0.0215	
1177.40000	-0.0212	
1177.60000	-0.0208	
1177.80000	-0.0206	
1178.00000	-0.0204	
1178.20000	-0.0198	
1178.40000	-0.0194	
1178.60000	-0.0194	
1178.80000	-0.0191	
1179.00000	-0.0189	
1179.20000	-0.0188	
1179.40000	-0.0186	
1179.60000	-0.0179	
1179.80000	-0.0177	
1180.00000	-0.0174	
1180.20000	-0.0171	
1180.40000	-0.0169	
1180.60000	-0.0166	
1180.80000	-0.0165	
1181.00000	-0.0162	
1181.20000	-0.0160	
1181.40000	-0.0162	
1181.60000	-0.0154	
1181.80000	-0.0151	
1182.00000	-0.0150	
1182.20000	-0.0148	
1182.40000	-0.0142	
1182.60000	-0.0145	
1182.80000	-0.0145	
1183.00000	-0.0145	
1183.20000	-0.0145	
1183.40000	-0.0140	
1183.60000	-0.0136	
1183.80000	-0.0136	
1184.00000	-0.0137	
1184.20000	-0.0134	
1184.40000	-0.0134	
1184.60000	-0.0137	
1184.80000	-0.0136	
1185.00000	-0.0137	
1185.20000	-0.0143	
1185.40000	-0.0142	
1185.60000	-0.0142	
1185.80000	-0.0143	
1186.00000	-0.0145	
1186.20000	-0.0146	
1186.40000	-0.0151	
1186.60000	-0.0153	
1186.80000	-0.0157	
1187.00000	-0.0157	
1187.20000	-0.0163	
1187.40000	-0.0165	
1187.60000	-0.0166	
1187.80000	-0.0171	
1188.00000	-0.0174	
1188.20000	-0.0174	
1188.40000	-0.0183	
1188.60000	-0.0185	
1188.80000	-0.0188	
1189.00000	-0.0191	
1189.20000	-0.0194	
1189.40000	-0.0198	
1189.60000	-0.0200	
1189.80000	-0.0206	
1190.00000	-0.0209	
1190.20000	-0.0212	
1190.40000	-0.0212	
1190.60000	-0.0211	
1190.80000	-0.0211	
1191.00000	-0.0211	
1191.20000	-0.0211	
1191.40000	-0.0211	
1191.60000	-0.0214	
1191.80000	-0.0215	
1192.00000	-0.0212	
1192.20000	-0.0214	
1192.40000	-0.0215	
1192.60000	-0.0211	
1192.80000	-0.0214	
1193.00000	-0.0214	
1193.20000	-0.0215	
1193.40000	-0.0212	
1193.60000	-0.0214	
1193.80000	-0.0212	
1194.00000	-0.0206	
1194.20000	-0.0204	
1194.40000	-0.0197	
1194.60000	-0.0198	
1194.80000	-0.0197	
1195.00000	-0.0191	
1195.20000	-0.0191	
1195.40000	-0.0191	
1195.60000	-0.0186	
1195.80000	-0.0183	
1196.00000	-0.0179	
1196.20000	-0.0177	
1196.40000	-0.0174	
1196.60000	-0.0168	
1196.80000	-0.0168	
1197.00000	-0.0165	
1197.20000	-0.0163	
1197.40000	-0.0157	
1197.60000	-0.0162	
1197.80000	-0.0156	
1198.00000	-0.0153	
1198.20000	-0.0154	
1198.40000	-0.0148	
1198.60000	-0.0142	
1198.80000	-0.0146	
1199.00000	-0.0142	
1199.20000	-0.0140	
1199.40000	-0.0143	
1199.60000	-0.0140	
1199.80000	-0.0142	
1200.00000	-0.0140	
1200.20000	-0.0137	
1200.40000	-0.0136	
1200.60000	-0.0134	
1200.80000	-0.0131	
1201.00000	-0.0131	
1201.20000	-0.0131	
1201.40000	-0.0134	
1201.60000	-0.0142	
1201.80000	-0.0140	
1202.00000	-0.0143	
1202.20000	-0.0145	
1202.40000	-0.0142	
1202.60000	-0.0143	
1202.80000	-0.0146	
1203.00000	-0.0151	
1203.20000	-0.0153	
1203.40000	-0.0157	
1203.60000	-0.0160	
1203.80000	-0.0163	
1204.00000	-0.0166	
1204.20000	-0.0169	
1204.40000	-0.0169	
1204.60000	-0.0175	
1204.80000	-0.0175	
1205.00000	-0.0183	
1205.20000	-0.0183	
1205.40000	-0.0188	
1205.60000	-0.0188	
1205.80000	-0.0194	
1206.00000	-0.0198	
1206.20000	-0.0198	
1206.40000	-0.0203	
1206.60000	-0.0206	
1206.80000	-0.0209	
1207.00000	-0.0208	
1207.20000	-0.0208	
1207.40000	-0.0206	
1207.60000	-0.0208	
1207.80000	-0.0208	
1208.00000	-0.0208	
1208.20000	-0.0208	
1208.40000	-0.0204	
1208.60000	-0.0206	
1208.80000	-0.0204	
1209.00000	-0.0203	
1209.20000	-0.0203	
1209.40000	-0.0206	
1209.60000	-0.0204	
1209.80000	-0.0208	
1210.00000	-0.0203	
1210.20000	-0.0203	
1210.40000	-0.0198	
1210.60000	-0.0192	
1210.80000	-0.0191	
1211.00000	-0.0186	
1211.20000	-0.0188	
1211.40000	-0.0182	
1211.60000	-0.0177	
1211.80000	-0.0174	
1212.00000	-0.0172	
1212.20000	-0.0169	
1212.40000	-0.0168	
1212.60000	-0.0168	
1212.80000	-0.0166	
1213.00000	-0.0162	
1213.20000	-0.0160	
1213.40000	-0.0156	
1213.60000	-0.0151	
1213.80000	-0.0151	
1214.00000	-0.0151	
1214.20000	-0.0148	
1214.40000	-0.0148	
1214.60000	-0.0145	
1214.80000	-0.0145	
1215.00000	-0.0142	
1215.20000	-0.0137	
1215.40000	-0.0131	
1215.60000	-0.0131	
1215.80000	-0.0128	
1216.00000	-0.0130	
1216.20000	-0.0128	
1216.40000	-0.0131	
1216.60000	-0.0128	
1216.80000	-0.0125	
1217.00000	-0.0124	
1217.20000	-0.0122	
1217.40000	-0.0125	
1217.60000	-0.0124	
1217.80000	-0.0125	
1218.00000	-0.0127	
1218.20000	-0.0128	
1218.40000	-0.0131	
1218.60000	-0.0133	
1218.80000	-0.0134	
1219.00000	-0.0137	
1219.20000	-0.0137	
1219.40000	-0.0137	
1219.60000	-0.0140	
1219.80000	-0.0145	
1220.00000	-0.0145	
1220.20000	-0.0151	
1220.40000	-0.0151	
1220.60000	-0.0156	
1220.80000	-0.0157	
1221.00000	-0.0157	
1221.20000	-0.0165	
1221.40000	-0.0168	
1221.60000	-0.0171	
1221.80000	-0.0172	
1222.00000	-0.0174	
1222.20000	-0.0182	
1222.40000	-0.0185	
1222.60000	-0.0188	
1222.80000	-0.0192	
1223.00000	-0.0192	
1223.20000	-0.0194	
1223.40000	-0.0200	
1223.60000	-0.0204	
1223.80000	-0.0203	
1224.00000	-0.0200	
1224.20000	-0.0203	
1224.40000	-0.0203	
1224.60000	-0.0203	
1224.80000	-0.0203	
1225.00000	-0.0204	
1225.20000	-0.0198	
1225.40000	-0.0198	
1225.60000	-0.0204	
1225.80000	-0.0203	
1226.00000	-0.0208	
1226.20000	-0.0208	
1226.40000	-0.0208	
1226.60000	-0.0208	
1226.80000	-0.0203	
1227.00000	-0.0198	
1227.20000	-0.0192	
1227.40000	-0.0191	
1227.60000	-0.0188	
1227.80000	-0.0186	
1228.00000	-0.0185	
1228.20000	-0.0177	
1228.40000	-0.0177	
1228.60000	-0.0174	
1228.80000	-0.0174	
1229.00000	-0.0171	
1229.20000	-0.0168	
1229.40000	-0.0166	
1229.60000	-0.0163	
1229.80000	-0.0157	
1230.00000	-0.0157	
1230.20000	-0.0153	
1230.40000	-0.0153	
1230.60000	-0.0153	
1230.80000	-0.0146	
1231.00000	-0.0153	
1231.20000	-0.0145	
1231.40000	-0.0148	
1231.60000	-0.0145	
1231.80000	-0.0142	
1232.00000	-0.0142	
1232.20000	-0.0134	
1232.40000	-0.0136	
1232.60000	-0.0136	
1232.80000	-0.0133	
1233.00000	-0.0134	
1233.20000	-0.0134	
1233.40000	-0.0127	
1233.60000	-0.0130	
1233.80000	-0.0130	
1234.00000	-0.0130	
1234.20000	-0.0128	
1234.40000	-0.0131	
1234.60000	-0.0130	
1234.80000	-0.0131	
1235.00000	-0.0134	
1235.20000	-0.0134	
1235.40000	-0.0134	
1235.60000	-0.0136	
1235.80000	-0.0137	
1236.00000	-0.0142	
1236.20000	-0.0137	
1236.40000	-0.0145	
1236.60000	-0.0145	
1236.80000	-0.0145	
1237.00000	-0.0146	
