______________________	______________________	______________________	______________________	______________________	______________________	______________________	______________________	______________________	
data file :	C:\emka\iox_2_9_5_73\data\20190517-piga.mkt
saved on :	
______________________	______________________	______________________	______________________	______________________	______________________	______________________	______________________	______________________	
printed on :	june   6, 2019, at  10: 59: 12
export mode :	to text file
print author :	no_logged_user
print com :	no available comment
ecgAuto version :	3.3.5.6 []
original sample freq (Hz) :
	 ECG	5000
	 Pig Aortic Pressure	1000
	 Cam Fire	500
	 Bloom A	500
	 Bloom B	500
	 CFR	1000
undersampling factor :		1
print sample freq (Hz) :		5000
______________________	______________________	______________________	______________________	______________________	______________________	______________________	______________________	______________________	

time ms	 ECG	
	V	


...................	...................	...................	...................	...................	...................	...................	...................	...................	...................	...................	...................	...................	
zone-start :	exp_JoVE-VERP	time duration s :	00.00000	data duration s :	15.00000	stream section :	1
in-period :	op 1, p 1, r 1, p[r] 1	Noname #1	0.00e+00	
start period-time :	  00:46:06.985
start CPU time :	may  17, 2019, 14: 02: 54
start site-time :	  00:46:06.986
...................	...................	...................	...................	...................	...................	...................	...................	...................	...................	...................	...................	...................	
0.20000	-0.0755	
0.40000	-0.0780	
0.60000	-0.0800	
0.80000	-0.0812	
1.00000	-0.0829	
1.20000	-0.0842	
1.40000	-0.0848	
1.60000	-0.0858	
1.80000	-0.0865	
2.00000	-0.0868	
2.20000	-0.0870	
2.40000	-0.0876	
2.60000	-0.0879	
2.80000	-0.0882	
3.00000	-0.0882	
3.20000	-0.0888	
3.40000	-0.0890	
3.60000	-0.0894	
3.80000	-0.0897	
4.00000	-0.0905	
4.20000	-0.0914	
4.40000	-0.0922	
4.60000	-0.0926	
4.80000	-0.0934	
5.00000	-0.0937	
5.20000	-0.0948	
5.40000	-0.0958	
5.60000	-0.0974	
5.80000	-0.0984	
6.00000	-0.0998	
6.20000	-0.1013	
6.40000	-0.1022	
6.60000	-0.1038	
6.80000	-0.1051	
7.00000	-0.1065	
7.20000	-0.1079	
7.40000	-0.1091	
7.60000	-0.1111	
7.80000	-0.1126	
8.00000	-0.1144	
8.20000	-0.1160	
8.40000	-0.1173	
8.60000	-0.1190	
8.80000	-0.1202	
9.00000	-0.1212	
9.20000	-0.1225	
9.40000	-0.1236	
9.60000	-0.1248	
9.80000	-0.1257	
10.00000	-0.1266	
10.20000	-0.1273	
10.40000	-0.1280	
10.60000	-0.1285	
10.80000	-0.1288	
11.00000	-0.1291	
11.20000	-0.1294	
11.40000	-0.1295	
11.60000	-0.1299	
11.80000	-0.1300	
12.00000	-0.1302	
12.20000	-0.1308	
12.40000	-0.1311	
12.60000	-0.1312	
12.80000	-0.1317	
13.00000	-0.1323	
13.20000	-0.1328	
13.40000	-0.1331	
13.60000	-0.1335	
13.80000	-0.1337	
14.00000	-0.1338	
14.20000	-0.1343	
14.40000	-0.1352	
14.60000	-0.1352	
14.80000	-0.1358	
15.00000	-0.1364	
15.20000	-0.1366	
15.40000	-0.1372	
15.60000	-0.1373	
15.80000	-0.1379	
16.00000	-0.1382	
16.20000	-0.1384	
16.40000	-0.1387	
16.60000	-0.1393	
16.80000	-0.1395	
17.00000	-0.1398	
17.20000	-0.1399	
17.40000	-0.1402	
17.60000	-0.1405	
17.80000	-0.1411	
18.00000	-0.1413	
18.20000	-0.1416	
18.40000	-0.1418	
18.60000	-0.1424	
18.80000	-0.1430	
19.00000	-0.1434	
19.20000	-0.1439	
19.40000	-0.1447	
19.60000	-0.1457	
19.80000	-0.1465	
20.00000	-0.1469	
20.20000	-0.1477	
20.40000	-0.1482	
20.60000	-0.1489	
20.80000	-0.1497	
21.00000	-0.1501	
21.20000	-0.1506	
21.40000	-0.1509	
21.60000	-0.1511	
21.80000	-0.1514	
22.00000	-0.1515	
22.20000	-0.1526	
22.40000	-0.1530	
22.60000	-0.1535	
22.80000	-0.1541	
23.00000	-0.1540	
23.20000	-0.1540	
23.40000	-0.1540	
23.60000	-0.1540	
23.80000	-0.1540	
24.00000	-0.1537	
24.20000	-0.1532	
24.40000	-0.1530	
24.60000	-0.1527	
24.80000	-0.1529	
25.00000	-0.1521	
25.20000	-0.1520	
25.40000	-0.1518	
25.60000	-0.1515	
25.80000	-0.1511	
26.00000	-0.1506	
26.20000	-0.1503	
26.40000	-0.1500	
26.60000	-0.1494	
26.80000	-0.1489	
27.00000	-0.1483	
27.20000	-0.1479	
27.40000	-0.1476	
27.60000	-0.1471	
27.80000	-0.1468	
28.00000	-0.1465	
28.20000	-0.1463	
28.40000	-0.1463	
28.60000	-0.1460	
28.80000	-0.1463	
29.00000	-0.1457	
29.20000	-0.1459	
29.40000	-0.1456	
29.60000	-0.1454	
29.80000	-0.1451	
30.00000	-0.1448	
30.20000	-0.1448	
30.40000	-0.1447	
30.60000	-0.1442	
30.80000	-0.1440	
31.00000	-0.1442	
31.20000	-0.1439	
31.40000	-0.1437	
31.60000	-0.1440	
31.80000	-0.1439	
32.00000	-0.1437	
32.20000	-0.1437	
32.40000	-0.1439	
32.60000	-0.1437	
32.80000	-0.1443	
33.00000	-0.1442	
33.20000	-0.1442	
33.40000	-0.1447	
33.60000	-0.1447	
33.80000	-0.1448	
34.00000	-0.1450	
34.20000	-0.1451	
34.40000	-0.1454	
34.60000	-0.1451	
34.80000	-0.1456	
35.00000	-0.1454	
35.20000	-0.1457	
35.40000	-0.1459	
35.60000	-0.1460	
35.80000	-0.1466	
36.00000	-0.1469	
36.20000	-0.1472	
36.40000	-0.1477	
36.60000	-0.1482	
36.80000	-0.1486	
37.00000	-0.1489	
37.20000	-0.1492	
37.40000	-0.1500	
37.60000	-0.1503	
37.80000	-0.1509	
38.00000	-0.1509	
38.20000	-0.1511	
38.40000	-0.1514	
38.60000	-0.1520	
38.80000	-0.1527	
39.00000	-0.1530	
39.20000	-0.1537	
39.40000	-0.1544	
39.60000	-0.1543	
39.80000	-0.1549	
40.00000	-0.1552	
40.20000	-0.1552	
40.40000	-0.1555	
40.60000	-0.1558	
40.80000	-0.1556	
41.00000	-0.1564	
41.20000	-0.1566	
41.40000	-0.1572	
41.60000	-0.1578	
41.80000	-0.1579	
42.00000	-0.1585	
42.20000	-0.1590	
42.40000	-0.1591	
42.60000	-0.1593	
42.80000	-0.1593	
43.00000	-0.1595	
43.20000	-0.1596	
43.40000	-0.1593	
43.60000	-0.1595	
43.80000	-0.1595	
44.00000	-0.1595	
44.20000	-0.1595	
44.40000	-0.1588	
44.60000	-0.1585	
44.80000	-0.1585	
45.00000	-0.1578	
45.20000	-0.1575	
45.40000	-0.1572	
45.60000	-0.1569	
45.80000	-0.1564	
46.00000	-0.1558	
46.20000	-0.1553	
46.40000	-0.1555	
46.60000	-0.1552	
46.80000	-0.1546	
47.00000	-0.1543	
47.20000	-0.1540	
47.40000	-0.1534	
47.60000	-0.1529	
47.80000	-0.1526	
48.00000	-0.1526	
48.20000	-0.1521	
48.40000	-0.1515	
48.60000	-0.1514	
48.80000	-0.1511	
49.00000	-0.1511	
49.20000	-0.1511	
49.40000	-0.1511	
49.60000	-0.1509	
49.80000	-0.1511	
50.00000	-0.1511	
50.20000	-0.1509	
50.40000	-0.1509	
50.60000	-0.1509	
50.80000	-0.1508	
51.00000	-0.1508	
51.20000	-0.1509	
51.40000	-0.1503	
51.60000	-0.1506	
51.80000	-0.1508	
52.00000	-0.1503	
52.20000	-0.1505	
52.40000	-0.1503	
52.60000	-0.1501	
52.80000	-0.1500	
53.00000	-0.1498	
53.20000	-0.1498	
53.40000	-0.1491	
53.60000	-0.1491	
53.80000	-0.1488	
54.00000	-0.1486	
54.20000	-0.1483	
54.40000	-0.1483	
54.60000	-0.1479	
54.80000	-0.1471	
55.00000	-0.1469	
55.20000	-0.1469	
55.40000	-0.1469	
55.60000	-0.1471	
55.80000	-0.1469	
56.00000	-0.1466	
56.20000	-0.1462	
56.40000	-0.1459	
56.60000	-0.1457	
56.80000	-0.1454	
57.00000	-0.1451	
57.20000	-0.1447	
57.40000	-0.1442	
57.60000	-0.1440	
57.80000	-0.1436	
58.00000	-0.1439	
58.20000	-0.1434	
58.40000	-0.1434	
58.60000	-0.1433	
58.80000	-0.1428	
59.00000	-0.1419	
59.20000	-0.1418	
59.40000	-0.1411	
59.60000	-0.1407	
59.80000	-0.1402	
60.00000	-0.1398	
60.20000	-0.1395	
60.40000	-0.1392	
60.60000	-0.1381	
60.80000	-0.1375	
61.00000	-0.1367	
61.20000	-0.1361	
61.40000	-0.1355	
61.60000	-0.1349	
61.80000	-0.1343	
62.00000	-0.1335	
62.20000	-0.1329	
62.40000	-0.1320	
62.60000	-0.1315	
62.80000	-0.1312	
63.00000	-0.1311	
63.20000	-0.1303	
63.40000	-0.1299	
63.60000	-0.1291	
63.80000	-0.1282	
64.00000	-0.1277	
64.20000	-0.1271	
64.40000	-0.1265	
64.60000	-0.1256	
64.80000	-0.1251	
65.00000	-0.1244	
65.20000	-0.1236	
65.40000	-0.1230	
65.60000	-0.1227	
65.80000	-0.1221	
66.00000	-0.1213	
66.20000	-0.1212	
66.40000	-0.1205	
66.60000	-0.1199	
66.80000	-0.1195	
67.00000	-0.1189	
67.20000	-0.1184	
67.40000	-0.1181	
67.60000	-0.1172	
67.80000	-0.1169	
68.00000	-0.1169	
68.20000	-0.1163	
68.40000	-0.1160	
68.60000	-0.1154	
68.80000	-0.1152	
69.00000	-0.1151	
69.20000	-0.1147	
69.40000	-0.1146	
69.60000	-0.1141	
69.80000	-0.1138	
70.00000	-0.1134	
70.20000	-0.1134	
70.40000	-0.1128	
70.60000	-0.1123	
70.80000	-0.1123	
71.00000	-0.1123	
71.20000	-0.1118	
71.40000	-0.1111	
71.60000	-0.1105	
71.80000	-0.1105	
72.00000	-0.1100	
72.20000	-0.1100	
72.40000	-0.1097	
72.60000	-0.1091	
72.80000	-0.1089	
73.00000	-0.1085	
73.20000	-0.1079	
73.40000	-0.1077	
73.60000	-0.1068	
73.80000	-0.1062	
74.00000	-0.1059	
74.20000	-0.1057	
74.40000	-0.1053	
74.60000	-0.1045	
74.80000	-0.1044	
75.00000	-0.1039	
75.20000	-0.1036	
75.40000	-0.1035	
75.60000	-0.1025	
75.80000	-0.1022	
76.00000	-0.1015	
76.20000	-0.1013	
76.40000	-0.1009	
76.60000	-0.1003	
76.80000	-0.0998	
77.00000	-0.0992	
77.20000	-0.0984	
77.40000	-0.0980	
77.60000	-0.0970	
77.80000	-0.0963	
78.00000	-0.0957	
78.20000	-0.0951	
78.40000	-0.0940	
78.60000	-0.0938	
78.80000	-0.0937	
79.00000	-0.0929	
79.20000	-0.0926	
79.40000	-0.0922	
79.60000	-0.0916	
79.80000	-0.0911	
80.00000	-0.0906	
80.20000	-0.0903	
80.40000	-0.0899	
80.60000	-0.0891	
80.80000	-0.0882	
81.00000	-0.0879	
81.20000	-0.0874	
81.40000	-0.0870	
81.60000	-0.0865	
81.80000	-0.0856	
82.00000	-0.0853	
82.20000	-0.0848	
82.40000	-0.0845	
82.60000	-0.0842	
82.80000	-0.0836	
83.00000	-0.0832	
83.20000	-0.0827	
83.40000	-0.0826	
83.60000	-0.0819	
83.80000	-0.0815	
84.00000	-0.0810	
84.20000	-0.0809	
84.40000	-0.0803	
84.60000	-0.0801	
84.80000	-0.0798	
85.00000	-0.0793	
85.20000	-0.0790	
85.40000	-0.0789	
85.60000	-0.0784	
85.80000	-0.0783	
86.00000	-0.0781	
86.20000	-0.0780	
86.40000	-0.0777	
86.60000	-0.0775	
86.80000	-0.0775	
87.00000	-0.0768	
87.20000	-0.0764	
87.40000	-0.0763	
87.60000	-0.0764	
87.80000	-0.0760	
88.00000	-0.0757	
88.20000	-0.0751	
88.40000	-0.0749	
88.60000	-0.0746	
88.80000	-0.0743	
89.00000	-0.0742	
89.20000	-0.0740	
89.40000	-0.0740	
89.60000	-0.0731	
89.80000	-0.0728	
90.00000	-0.0725	
90.20000	-0.0722	
90.40000	-0.0720	
90.60000	-0.0714	
90.80000	-0.0710	
91.00000	-0.0710	
91.20000	-0.0706	
91.40000	-0.0706	
91.60000	-0.0703	
91.80000	-0.0702	
92.00000	-0.0699	
92.20000	-0.0697	
92.40000	-0.0687	
92.60000	-0.0688	
92.80000	-0.0682	
93.00000	-0.0679	
93.20000	-0.0677	
93.40000	-0.0670	
93.60000	-0.0665	
93.80000	-0.0661	
94.00000	-0.0656	
94.20000	-0.0652	
94.40000	-0.0645	
94.60000	-0.0639	
94.80000	-0.0635	
95.00000	-0.0629	
95.20000	-0.0623	
95.40000	-0.0618	
95.60000	-0.0613	
95.80000	-0.0610	
96.00000	-0.0601	
96.20000	-0.0597	
96.40000	-0.0592	
96.60000	-0.0587	
96.80000	-0.0578	
97.00000	-0.0577	
97.20000	-0.0566	
97.40000	-0.0565	
97.60000	-0.0552	
97.80000	-0.0549	
98.00000	-0.0548	
98.20000	-0.0540	
98.40000	-0.0531	
98.60000	-0.0528	
98.80000	-0.0522	
99.00000	-0.0517	
99.20000	-0.0513	
99.40000	-0.0508	
99.60000	-0.0505	
99.80000	-0.0500	
100.00000	-0.0497	
100.20000	-0.0490	
100.40000	-0.0485	
100.60000	-0.0479	
100.80000	-0.0476	
101.00000	-0.0473	
101.20000	-0.0468	
101.40000	-0.0465	
101.60000	-0.0461	
101.80000	-0.0459	
102.00000	-0.0452	
102.20000	-0.0447	
102.40000	-0.0444	
102.60000	-0.0443	
102.80000	-0.0443	
103.00000	-0.0438	
103.20000	-0.0433	
103.40000	-0.0430	
103.60000	-0.0426	
103.80000	-0.0420	
104.00000	-0.0421	
104.20000	-0.0418	
104.40000	-0.0415	
104.60000	-0.0404	
104.80000	-0.0403	
105.00000	-0.0395	
105.20000	-0.0391	
105.40000	-0.0388	
105.60000	-0.0388	
105.80000	-0.0388	
106.00000	-0.0383	
106.20000	-0.0380	
106.40000	-0.0374	
106.60000	-0.0368	
106.80000	-0.0363	
107.00000	-0.0362	
107.20000	-0.0352	
107.40000	-0.0343	
107.60000	-0.0342	
107.80000	-0.0337	
108.00000	-0.0333	
108.20000	-0.0331	
108.40000	-0.0327	
108.60000	-0.0319	
108.80000	-0.0313	
109.00000	-0.0305	
109.20000	-0.0302	
109.40000	-0.0294	
109.60000	-0.0290	
109.80000	-0.0282	
110.00000	-0.0275	
110.20000	-0.0269	
110.40000	-0.0262	
110.60000	-0.0255	
110.80000	-0.0250	
111.00000	-0.0241	
111.20000	-0.0232	
111.40000	-0.0227	
111.60000	-0.0221	
111.80000	-0.0217	
112.00000	-0.0208	
112.20000	-0.0200	
112.40000	-0.0194	
112.60000	-0.0191	
112.80000	-0.0186	
113.00000	-0.0183	
113.20000	-0.0179	
113.40000	-0.0172	
113.60000	-0.0168	
113.80000	-0.0163	
114.00000	-0.0153	
114.20000	-0.0150	
114.40000	-0.0145	
114.60000	-0.0140	
114.80000	-0.0134	
115.00000	-0.0127	
115.20000	-0.0122	
115.40000	-0.0116	
115.60000	-0.0114	
115.80000	-0.0108	
116.00000	-0.0105	
116.20000	-0.0101	
116.40000	-0.0098	
116.60000	-0.0093	
116.80000	-0.0090	
117.00000	-0.0085	
117.20000	-0.0081	
117.40000	-0.0079	
117.60000	-0.0078	
117.80000	-0.0076	
118.00000	-0.0076	
118.20000	-0.0072	
118.40000	-0.0073	
118.60000	-0.0076	
118.80000	-0.0076	
119.00000	-0.0072	
119.20000	-0.0073	
119.40000	-0.0073	
119.60000	-0.0072	
119.80000	-0.0070	
120.00000	-0.0073	
120.20000	-0.0076	
120.40000	-0.0072	
120.60000	-0.0073	
120.80000	-0.0079	
121.00000	-0.0079	
121.20000	-0.0078	
121.40000	-0.0076	
121.60000	-0.0073	
121.80000	-0.0078	
122.00000	-0.0079	
122.20000	-0.0081	
122.40000	-0.0085	
122.60000	-0.0084	
122.80000	-0.0084	
123.00000	-0.0087	
123.20000	-0.0085	
123.40000	-0.0085	
123.60000	-0.0089	
123.80000	-0.0089	
124.00000	-0.0085	
124.20000	-0.0089	
124.40000	-0.0092	
124.60000	-0.0095	
124.80000	-0.0101	
125.00000	-0.0102	
125.20000	-0.0104	
125.40000	-0.0108	
125.60000	-0.0104	
125.80000	-0.0105	
126.00000	-0.0107	
126.20000	-0.0108	
126.40000	-0.0108	
126.60000	-0.0111	
126.80000	-0.0114	
127.00000	-0.0116	
127.20000	-0.0116	
127.40000	-0.0121	
127.60000	-0.0122	
127.80000	-0.0119	
128.00000	-0.0124	
128.20000	-0.0125	
128.40000	-0.0128	
128.60000	-0.0127	
128.80000	-0.0130	
129.00000	-0.0128	
129.20000	-0.0134	
129.40000	-0.0137	
129.60000	-0.0143	
129.80000	-0.0146	
130.00000	-0.0148	
130.20000	-0.0151	
130.40000	-0.0151	
130.60000	-0.0156	
130.80000	-0.0156	
131.00000	-0.0160	
131.20000	-0.0163	
131.40000	-0.0166	
131.60000	-0.0168	
131.80000	-0.0171	
132.00000	-0.0171	
132.20000	-0.0175	
132.40000	-0.0182	
132.60000	-0.0186	
132.80000	-0.0189	
133.00000	-0.0192	
133.20000	-0.0198	
133.40000	-0.0203	
133.60000	-0.0204	
133.80000	-0.0211	
134.00000	-0.0214	
134.20000	-0.0217	
134.40000	-0.0224	
134.60000	-0.0230	
134.80000	-0.0232	
135.00000	-0.0240	
135.20000	-0.0247	
135.40000	-0.0253	
135.60000	-0.0256	
135.80000	-0.0267	
136.00000	-0.0272	
136.20000	-0.0276	
136.40000	-0.0282	
136.60000	-0.0291	
136.80000	-0.0298	
137.00000	-0.0301	
137.20000	-0.0310	
137.40000	-0.0319	
137.60000	-0.0331	
137.80000	-0.0339	
138.00000	-0.0345	
138.20000	-0.0348	
138.40000	-0.0360	
138.60000	-0.0368	
138.80000	-0.0375	
139.00000	-0.0385	
139.20000	-0.0394	
139.40000	-0.0400	
139.60000	-0.0404	
139.80000	-0.0410	
140.00000	-0.0418	
140.20000	-0.0423	
140.40000	-0.0430	
140.60000	-0.0436	
140.80000	-0.0439	
141.00000	-0.0444	
141.20000	-0.0452	
141.40000	-0.0458	
141.60000	-0.0461	
141.80000	-0.0468	
142.00000	-0.0470	
142.20000	-0.0475	
142.40000	-0.0482	
142.60000	-0.0484	
142.80000	-0.0490	
143.00000	-0.0496	
143.20000	-0.0504	
143.40000	-0.0504	
143.60000	-0.0508	
143.80000	-0.0513	
144.00000	-0.0516	
144.20000	-0.0516	
144.40000	-0.0522	
144.60000	-0.0526	
144.80000	-0.0526	
145.00000	-0.0529	
145.20000	-0.0534	
145.40000	-0.0537	
145.60000	-0.0540	
145.80000	-0.0546	
146.00000	-0.0549	
146.20000	-0.0552	
146.40000	-0.0557	
146.60000	-0.0557	
146.80000	-0.0565	
147.00000	-0.0565	
147.20000	-0.0569	
147.40000	-0.0569	
147.60000	-0.0569	
147.80000	-0.0574	
148.00000	-0.0572	
148.20000	-0.0578	
148.40000	-0.0580	
148.60000	-0.0578	
148.80000	-0.0581	
149.00000	-0.0589	
149.20000	-0.0591	
149.40000	-0.0592	
149.60000	-0.0595	
149.80000	-0.0600	
150.00000	-0.0601	
150.20000	-0.0606	
150.40000	-0.0609	
150.60000	-0.0610	
150.80000	-0.0615	
151.00000	-0.0618	
151.20000	-0.0623	
151.40000	-0.0627	
151.60000	-0.0630	
151.80000	-0.0633	
152.00000	-0.0638	
152.20000	-0.0641	
152.40000	-0.0645	
152.60000	-0.0648	
152.80000	-0.0650	
153.00000	-0.0659	
153.20000	-0.0661	
153.40000	-0.0662	
153.60000	-0.0667	
153.80000	-0.0670	
154.00000	-0.0674	
154.20000	-0.0681	
154.40000	-0.0685	
154.60000	-0.0687	
154.80000	-0.0684	
155.00000	-0.0688	
155.20000	-0.0693	
155.40000	-0.0696	
155.60000	-0.0702	
155.80000	-0.0702	
156.00000	-0.0708	
156.20000	-0.0713	
156.40000	-0.0710	
156.60000	-0.0716	
156.80000	-0.0716	
157.00000	-0.0723	
157.20000	-0.0717	
157.40000	-0.0719	
157.60000	-0.0722	
157.80000	-0.0725	
158.00000	-0.0726	
158.20000	-0.0725	
158.40000	-0.0726	
158.60000	-0.0726	
158.80000	-0.0729	
159.00000	-0.0731	
159.20000	-0.0731	
159.40000	-0.0734	
159.60000	-0.0735	
159.80000	-0.0734	
160.00000	-0.0737	
160.20000	-0.0729	
160.40000	-0.0734	
160.60000	-0.0729	
160.80000	-0.0731	
161.00000	-0.0728	
161.20000	-0.0723	
161.40000	-0.0725	
161.60000	-0.0723	
161.80000	-0.0722	
162.00000	-0.0725	
162.20000	-0.0722	
162.40000	-0.0720	
162.60000	-0.0720	
162.80000	-0.0720	
163.00000	-0.0722	
163.20000	-0.0722	
163.40000	-0.0720	
163.60000	-0.0717	
163.80000	-0.0713	
164.00000	-0.0713	
164.20000	-0.0713	
164.40000	-0.0708	
164.60000	-0.0706	
164.80000	-0.0705	
165.00000	-0.0702	
165.20000	-0.0699	
165.40000	-0.0699	
165.60000	-0.0696	
165.80000	-0.0696	
166.00000	-0.0696	
166.20000	-0.0693	
166.40000	-0.0687	
166.60000	-0.0688	
166.80000	-0.0688	
167.00000	-0.0687	
167.20000	-0.0685	
167.40000	-0.0684	
167.60000	-0.0685	
167.80000	-0.0682	
168.00000	-0.0681	
168.20000	-0.0681	
168.40000	-0.0679	
168.60000	-0.0679	
168.80000	-0.0676	
169.00000	-0.0679	
169.20000	-0.0679	
169.40000	-0.0677	
169.60000	-0.0681	
169.80000	-0.0679	
170.00000	-0.0677	
170.20000	-0.0674	
170.40000	-0.0674	
170.60000	-0.0676	
170.80000	-0.0679	
171.00000	-0.0674	
171.20000	-0.0671	
171.40000	-0.0667	
171.60000	-0.0662	
171.80000	-0.0662	
172.00000	-0.0662	
172.20000	-0.0664	
172.40000	-0.0664	
172.60000	-0.0664	
172.80000	-0.0662	
173.00000	-0.0661	
173.20000	-0.0659	
173.40000	-0.0656	
173.60000	-0.0656	
173.80000	-0.0656	
174.00000	-0.0650	
174.20000	-0.0648	
174.40000	-0.0645	
174.60000	-0.0648	
174.80000	-0.0648	
175.00000	-0.0641	
175.20000	-0.0642	
175.40000	-0.0638	
175.60000	-0.0633	
175.80000	-0.0632	
176.00000	-0.0629	
176.20000	-0.0624	
176.40000	-0.0621	
176.60000	-0.0616	
176.80000	-0.0613	
177.00000	-0.0610	
177.20000	-0.0606	
177.40000	-0.0598	
177.60000	-0.0595	
177.80000	-0.0592	
178.00000	-0.0591	
178.20000	-0.0584	
178.40000	-0.0581	
178.60000	-0.0575	
178.80000	-0.0572	
179.00000	-0.0568	
179.20000	-0.0568	
179.40000	-0.0560	
179.60000	-0.0560	
179.80000	-0.0558	
180.00000	-0.0555	
180.20000	-0.0549	
180.40000	-0.0543	
180.60000	-0.0543	
180.80000	-0.0536	
181.00000	-0.0533	
181.20000	-0.0526	
181.40000	-0.0526	
181.60000	-0.0519	
181.80000	-0.0514	
182.00000	-0.0508	
182.20000	-0.0505	
182.40000	-0.0500	
182.60000	-0.0494	
182.80000	-0.0490	
183.00000	-0.0487	
183.20000	-0.0487	
183.40000	-0.0484	
183.60000	-0.0479	
183.80000	-0.0473	
184.00000	-0.0470	
184.20000	-0.0465	
184.40000	-0.0465	
184.60000	-0.0462	
184.80000	-0.0459	
185.00000	-0.0458	
185.20000	-0.0458	
185.40000	-0.0453	
185.60000	-0.0452	
185.80000	-0.0453	
186.00000	-0.0450	
186.20000	-0.0449	
186.40000	-0.0450	
186.60000	-0.0446	
186.80000	-0.0444	
187.00000	-0.0441	
187.20000	-0.0441	
187.40000	-0.0439	
187.60000	-0.0439	
187.80000	-0.0433	
188.00000	-0.0432	
188.20000	-0.0427	
188.40000	-0.0426	
188.60000	-0.0424	
188.80000	-0.0424	
189.00000	-0.0424	
189.20000	-0.0424	
189.40000	-0.0421	
189.60000	-0.0418	
189.80000	-0.0415	
190.00000	-0.0407	
190.20000	-0.0404	
190.40000	-0.0400	
190.60000	-0.0401	
190.80000	-0.0395	
191.00000	-0.0389	
191.20000	-0.0388	
191.40000	-0.0388	
191.60000	-0.0385	
191.80000	-0.0380	
192.00000	-0.0378	
192.20000	-0.0372	
192.40000	-0.0372	
192.60000	-0.0366	
192.80000	-0.0365	
193.00000	-0.0362	
193.20000	-0.0359	
193.40000	-0.0360	
193.60000	-0.0356	
193.80000	-0.0354	
194.00000	-0.0349	
194.20000	-0.0345	
194.40000	-0.0342	
194.60000	-0.0339	
194.80000	-0.0333	
195.00000	-0.0333	
195.20000	-0.0327	
195.40000	-0.0323	
195.60000	-0.0322	
195.80000	-0.0319	
196.00000	-0.0317	
196.20000	-0.0314	
196.40000	-0.0314	
196.60000	-0.0310	
196.80000	-0.0307	
197.00000	-0.0305	
197.20000	-0.0302	
197.40000	-0.0298	
197.60000	-0.0294	
197.80000	-0.0293	
198.00000	-0.0290	
198.20000	-0.0288	
198.40000	-0.0279	
198.60000	-0.0272	
198.80000	-0.0272	
199.00000	-0.0269	
199.20000	-0.0267	
199.40000	-0.0262	
199.60000	-0.0262	
199.80000	-0.0259	
200.00000	-0.0256	
200.20000	-0.0256	
200.40000	-0.0250	
200.60000	-0.0252	
200.80000	-0.0250	
201.00000	-0.0249	
201.20000	-0.0250	
201.40000	-0.0249	
201.60000	-0.0247	
201.80000	-0.0247	
202.00000	-0.0249	
202.20000	-0.0249	
202.40000	-0.0249	
202.60000	-0.0250	
202.80000	-0.0250	
203.00000	-0.0250	
203.20000	-0.0250	
203.40000	-0.0253	
203.60000	-0.0252	
203.80000	-0.0250	
204.00000	-0.0250	
204.20000	-0.0256	
204.40000	-0.0256	
204.60000	-0.0253	
204.80000	-0.0252	
205.00000	-0.0253	
205.20000	-0.0252	
205.40000	-0.0255	
205.60000	-0.0259	
205.80000	-0.0261	
206.00000	-0.0259	
206.20000	-0.0256	
206.40000	-0.0258	
206.60000	-0.0258	
206.80000	-0.0258	
207.00000	-0.0261	
207.20000	-0.0258	
207.40000	-0.0256	
207.60000	-0.0258	
207.80000	-0.0256	
208.00000	-0.0259	
208.20000	-0.0256	
208.40000	-0.0256	
208.60000	-0.0253	
208.80000	-0.0255	
209.00000	-0.0252	
209.20000	-0.0252	
209.40000	-0.0250	
209.60000	-0.0252	
209.80000	-0.0250	
210.00000	-0.0250	
210.20000	-0.0249	
210.40000	-0.0247	
210.60000	-0.0243	
210.80000	-0.0241	
211.00000	-0.0238	
211.20000	-0.0237	
211.40000	-0.0230	
211.60000	-0.0230	
211.80000	-0.0227	
212.00000	-0.0227	
212.20000	-0.0227	
212.40000	-0.0221	
212.60000	-0.0224	
212.80000	-0.0224	
213.00000	-0.0221	
213.20000	-0.0221	
213.40000	-0.0224	
213.60000	-0.0220	
213.80000	-0.0218	
214.00000	-0.0217	
214.20000	-0.0214	
214.40000	-0.0212	
214.60000	-0.0211	
214.80000	-0.0211	
215.00000	-0.0212	
215.20000	-0.0209	
215.40000	-0.0211	
215.60000	-0.0211	
215.80000	-0.0215	
216.00000	-0.0212	
216.20000	-0.0212	
216.40000	-0.0212	
216.60000	-0.0212	
216.80000	-0.0215	
217.00000	-0.0212	
217.20000	-0.0214	
217.40000	-0.0215	
217.60000	-0.0217	
217.80000	-0.0218	
218.00000	-0.0220	
218.20000	-0.0218	
218.40000	-0.0220	
218.60000	-0.0220	
218.80000	-0.0220	
219.00000	-0.0221	
219.20000	-0.0224	
219.40000	-0.0227	
219.60000	-0.0227	
219.80000	-0.0230	
220.00000	-0.0232	
220.20000	-0.0232	
220.40000	-0.0232	
220.60000	-0.0240	
220.80000	-0.0240	
221.00000	-0.0246	
221.20000	-0.0247	
221.40000	-0.0247	
221.60000	-0.0247	
221.80000	-0.0249	
222.00000	-0.0250	
222.20000	-0.0255	
222.40000	-0.0255	
222.60000	-0.0258	
222.80000	-0.0259	
223.00000	-0.0261	
223.20000	-0.0259	
223.40000	-0.0262	
223.60000	-0.0264	
223.80000	-0.0267	
224.00000	-0.0264	
224.20000	-0.0267	
224.40000	-0.0270	
224.60000	-0.0272	
224.80000	-0.0273	
225.00000	-0.0273	
225.20000	-0.0272	
225.40000	-0.0273	
225.60000	-0.0273	
225.80000	-0.0275	
226.00000	-0.0275	
226.20000	-0.0275	
226.40000	-0.0275	
226.60000	-0.0276	
226.80000	-0.0273	
227.00000	-0.0275	
227.20000	-0.0275	
227.40000	-0.0273	
227.60000	-0.0272	
227.80000	-0.0270	
228.00000	-0.0272	
228.20000	-0.0270	
228.40000	-0.0272	
228.60000	-0.0272	
228.80000	-0.0269	
229.00000	-0.0270	
229.20000	-0.0270	
229.40000	-0.0270	
229.60000	-0.0270	
229.80000	-0.0270	
230.00000	-0.0267	
230.20000	-0.0267	
230.40000	-0.0267	
230.60000	-0.0264	
230.80000	-0.0259	
231.00000	-0.0259	
231.20000	-0.0262	
231.40000	-0.0262	
231.60000	-0.0258	
231.80000	-0.0262	
232.00000	-0.0261	
232.20000	-0.0259	
232.40000	-0.0259	
232.60000	-0.0259	
232.80000	-0.0262	
233.00000	-0.0261	
233.20000	-0.0264	
233.40000	-0.0267	
233.60000	-0.0269	
233.80000	-0.0270	
234.00000	-0.0269	
234.20000	-0.0270	
234.40000	-0.0272	
234.60000	-0.0275	
234.80000	-0.0275	
235.00000	-0.0276	
235.20000	-0.0279	
235.40000	-0.0278	
235.60000	-0.0284	
235.80000	-0.0288	
236.00000	-0.0290	
236.20000	-0.0296	
236.40000	-0.0301	
236.60000	-0.0305	
236.80000	-0.0304	
237.00000	-0.0305	
237.20000	-0.0310	
237.40000	-0.0316	
237.60000	-0.0317	
237.80000	-0.0316	
238.00000	-0.0314	
238.20000	-0.0314	
238.40000	-0.0313	
238.60000	-0.0317	
238.80000	-0.0319	
239.00000	-0.0320	
239.20000	-0.0322	
239.40000	-0.0320	
239.60000	-0.0320	
239.80000	-0.0320	
240.00000	-0.0320	
240.20000	-0.0323	
240.40000	-0.0322	
240.60000	-0.0322	
240.80000	-0.0319	
241.00000	-0.0325	
241.20000	-0.0322	
241.40000	-0.0327	
241.60000	-0.0325	
241.80000	-0.0325	
242.00000	-0.0327	
242.20000	-0.0327	
242.40000	-0.0328	
242.60000	-0.0327	
242.80000	-0.0327	
243.00000	-0.0327	
243.20000	-0.0327	
243.40000	-0.0327	
243.60000	-0.0331	
243.80000	-0.0328	
244.00000	-0.0327	
244.20000	-0.0328	
244.40000	-0.0327	
244.60000	-0.0325	
244.80000	-0.0327	
245.00000	-0.0327	
245.20000	-0.0325	
245.40000	-0.0323	
245.60000	-0.0325	
245.80000	-0.0327	
246.00000	-0.0327	
246.20000	-0.0331	
246.40000	-0.0331	
246.60000	-0.0328	
246.80000	-0.0327	
247.00000	-0.0327	
247.20000	-0.0325	
247.40000	-0.0325	
247.60000	-0.0323	
247.80000	-0.0322	
248.00000	-0.0320	
248.20000	-0.0320	
248.40000	-0.0317	
248.60000	-0.0317	
248.80000	-0.0313	
249.00000	-0.0319	
249.20000	-0.0316	
249.40000	-0.0316	
249.60000	-0.0316	
249.80000	-0.0316	
250.00000	-0.0319	
250.20000	-0.0319	
250.40000	-0.0317	
250.60000	-0.0319	
250.80000	-0.0317	
251.00000	-0.0319	
251.20000	-0.0319	
251.40000	-0.0322	
251.60000	-0.0322	
251.80000	-0.0322	
252.00000	-0.0325	
252.20000	-0.0327	
252.40000	-0.0333	
252.60000	-0.0331	
252.80000	-0.0336	
253.00000	-0.0337	
253.20000	-0.0337	
253.40000	-0.0340	
253.60000	-0.0339	
253.80000	-0.0342	
254.00000	-0.0342	
254.20000	-0.0348	
254.40000	-0.0348	
254.60000	-0.0348	
254.80000	-0.0349	
255.00000	-0.0352	
255.20000	-0.0354	
255.40000	-0.0360	
255.60000	-0.0357	
255.80000	-0.0365	
256.00000	-0.0365	
256.20000	-0.0363	
256.40000	-0.0366	
256.60000	-0.0366	
256.80000	-0.0366	
257.00000	-0.0366	
257.20000	-0.0366	
257.40000	-0.0365	
257.60000	-0.0366	
257.80000	-0.0372	
258.00000	-0.0372	
258.20000	-0.0368	
258.40000	-0.0372	
258.60000	-0.0372	
258.80000	-0.0369	
259.00000	-0.0366	
259.20000	-0.0365	
259.40000	-0.0365	
259.60000	-0.0365	
259.80000	-0.0365	
260.00000	-0.0369	
260.20000	-0.0365	
260.40000	-0.0363	
260.60000	-0.0362	
260.80000	-0.0362	
261.00000	-0.0360	
261.20000	-0.0360	
261.40000	-0.0359	
261.60000	-0.0357	
261.80000	-0.0356	
262.00000	-0.0357	
262.20000	-0.0356	
262.40000	-0.0356	
262.60000	-0.0356	
262.80000	-0.0356	
263.00000	-0.0356	
263.20000	-0.0357	
263.40000	-0.0356	
263.60000	-0.0354	
263.80000	-0.0354	
264.00000	-0.0356	
264.20000	-0.0354	
264.40000	-0.0354	
264.60000	-0.0349	
264.80000	-0.0348	
265.00000	-0.0348	
265.20000	-0.0346	
265.40000	-0.0345	
265.60000	-0.0346	
265.80000	-0.0348	
266.00000	-0.0346	
266.20000	-0.0346	
266.40000	-0.0345	
266.60000	-0.0346	
266.80000	-0.0345	
267.00000	-0.0345	
267.20000	-0.0343	
267.40000	-0.0345	
267.60000	-0.0343	
267.80000	-0.0346	
268.00000	-0.0345	
268.20000	-0.0343	
268.40000	-0.0346	
268.60000	-0.0349	
268.80000	-0.0348	
269.00000	-0.0352	
269.20000	-0.0352	
269.40000	-0.0352	
269.60000	-0.0354	
269.80000	-0.0356	
270.00000	-0.0359	
270.20000	-0.0360	
270.40000	-0.0359	
270.60000	-0.0360	
270.80000	-0.0362	
271.00000	-0.0366	
271.20000	-0.0362	
271.40000	-0.0363	
271.60000	-0.0366	
271.80000	-0.0368	
272.00000	-0.0369	
272.20000	-0.0372	
272.40000	-0.0375	
272.60000	-0.0378	
272.80000	-0.0378	
273.00000	-0.0377	
273.20000	-0.0377	
273.40000	-0.0378	
273.60000	-0.0383	
273.80000	-0.0380	
274.00000	-0.0381	
274.20000	-0.0383	
274.40000	-0.0386	
274.60000	-0.0386	
274.80000	-0.0391	
275.00000	-0.0386	
275.20000	-0.0388	
275.40000	-0.0388	
275.60000	-0.0386	
275.80000	-0.0386	
276.00000	-0.0386	
276.20000	-0.0389	
276.40000	-0.0386	
276.60000	-0.0389	
276.80000	-0.0385	
277.00000	-0.0385	
277.20000	-0.0386	
277.40000	-0.0381	
277.60000	-0.0383	
277.80000	-0.0381	
278.00000	-0.0377	
278.20000	-0.0377	
278.40000	-0.0378	
278.60000	-0.0374	
278.80000	-0.0374	
279.00000	-0.0372	
279.20000	-0.0374	
279.40000	-0.0372	
279.60000	-0.0375	
279.80000	-0.0374	
280.00000	-0.0372	
280.20000	-0.0374	
280.40000	-0.0369	
280.60000	-0.0368	
280.80000	-0.0363	
281.00000	-0.0365	
281.20000	-0.0363	
281.40000	-0.0363	
281.60000	-0.0362	
281.80000	-0.0360	
282.00000	-0.0359	
282.20000	-0.0359	
282.40000	-0.0360	
282.60000	-0.0359	
282.80000	-0.0356	
283.00000	-0.0360	
283.20000	-0.0357	
283.40000	-0.0356	
283.60000	-0.0357	
283.80000	-0.0356	
284.00000	-0.0357	
284.20000	-0.0359	
284.40000	-0.0357	
284.60000	-0.0359	
284.80000	-0.0357	
285.00000	-0.0360	
285.20000	-0.0362	
285.40000	-0.0362	
285.60000	-0.0363	
285.80000	-0.0366	
286.00000	-0.0363	
286.20000	-0.0366	
286.40000	-0.0369	
286.60000	-0.0369	
286.80000	-0.0374	
287.00000	-0.0375	
287.20000	-0.0378	
287.40000	-0.0378	
287.60000	-0.0383	
287.80000	-0.0385	
288.00000	-0.0383	
288.20000	-0.0383	
288.40000	-0.0386	
288.60000	-0.0386	
288.80000	-0.0386	
289.00000	-0.0389	
289.20000	-0.0394	
289.40000	-0.0397	
289.60000	-0.0394	
289.80000	-0.0395	
290.00000	-0.0397	
290.20000	-0.0401	
290.40000	-0.0403	
290.60000	-0.0401	
290.80000	-0.0406	
291.00000	-0.0410	
291.20000	-0.0409	
291.40000	-0.0415	
291.60000	-0.0415	
291.80000	-0.0412	
292.00000	-0.0412	
292.20000	-0.0415	
292.40000	-0.0412	
292.60000	-0.0410	
292.80000	-0.0410	
293.00000	-0.0412	
293.20000	-0.0407	
293.40000	-0.0409	
293.60000	-0.0406	
293.80000	-0.0403	
294.00000	-0.0400	
294.20000	-0.0398	
294.40000	-0.0394	
294.60000	-0.0391	
294.80000	-0.0388	
295.00000	-0.0385	
295.20000	-0.0385	
295.40000	-0.0385	
295.60000	-0.0381	
295.80000	-0.0381	
296.00000	-0.0380	
296.20000	-0.0380	
296.40000	-0.0380	
296.60000	-0.0378	
296.80000	-0.0375	
297.00000	-0.0375	
297.20000	-0.0374	
297.40000	-0.0374	
297.60000	-0.0369	
297.80000	-0.0368	
298.00000	-0.0368	
298.20000	-0.0369	
298.40000	-0.0366	
298.60000	-0.0365	
298.80000	-0.0363	
299.00000	-0.0366	
299.20000	-0.0365	
299.40000	-0.0365	
299.60000	-0.0365	
299.80000	-0.0362	
300.00000	-0.0363	
300.20000	-0.0363	
300.40000	-0.0362	
300.60000	-0.0360	
300.80000	-0.0365	
301.00000	-0.0363	
301.20000	-0.0363	
301.40000	-0.0365	
301.60000	-0.0365	
301.80000	-0.0365	
302.00000	-0.0365	
302.20000	-0.0366	
302.40000	-0.0366	
302.60000	-0.0369	
302.80000	-0.0372	
303.00000	-0.0374	
303.20000	-0.0378	
303.40000	-0.0378	
303.60000	-0.0378	
303.80000	-0.0381	
304.00000	-0.0385	
304.20000	-0.0388	
304.40000	-0.0389	
304.60000	-0.0388	
304.80000	-0.0388	
305.00000	-0.0388	
305.20000	-0.0394	
305.40000	-0.0398	
305.60000	-0.0398	
305.80000	-0.0398	
306.00000	-0.0401	
306.20000	-0.0400	
306.40000	-0.0403	
306.60000	-0.0403	
306.80000	-0.0403	
307.00000	-0.0404	
307.20000	-0.0404	
307.40000	-0.0401	
307.60000	-0.0401	
307.80000	-0.0404	
308.00000	-0.0406	
308.20000	-0.0404	
308.40000	-0.0404	
308.60000	-0.0407	
308.80000	-0.0404	
309.00000	-0.0403	
309.20000	-0.0406	
309.40000	-0.0401	
309.60000	-0.0400	
309.80000	-0.0401	
310.00000	-0.0400	
310.20000	-0.0395	
310.40000	-0.0395	
310.60000	-0.0394	
310.80000	-0.0389	
311.00000	-0.0386	
311.20000	-0.0385	
311.40000	-0.0386	
311.60000	-0.0385	
311.80000	-0.0381	
312.00000	-0.0381	
312.20000	-0.0385	
312.40000	-0.0381	
312.60000	-0.0381	
312.80000	-0.0381	
313.00000	-0.0385	
313.20000	-0.0383	
313.40000	-0.0381	
313.60000	-0.0380	
313.80000	-0.0380	
314.00000	-0.0380	
314.20000	-0.0378	
314.40000	-0.0380	
314.60000	-0.0380	
314.80000	-0.0380	
315.00000	-0.0380	
315.20000	-0.0377	
315.40000	-0.0374	
315.60000	-0.0375	
315.80000	-0.0375	
316.00000	-0.0369	
316.20000	-0.0372	
316.40000	-0.0369	
316.60000	-0.0374	
316.80000	-0.0372	
317.00000	-0.0366	
317.20000	-0.0368	
317.40000	-0.0368	
317.60000	-0.0368	
317.80000	-0.0368	
318.00000	-0.0368	
318.20000	-0.0369	
318.40000	-0.0369	
318.60000	-0.0375	
318.80000	-0.0374	
319.00000	-0.0378	
319.20000	-0.0381	
319.40000	-0.0381	
319.60000	-0.0383	
319.80000	-0.0389	
320.00000	-0.0388	
320.20000	-0.0386	
320.40000	-0.0388	
320.60000	-0.0389	
320.80000	-0.0391	
321.00000	-0.0395	
321.20000	-0.0389	
321.40000	-0.0391	
321.60000	-0.0389	
321.80000	-0.0391	
322.00000	-0.0391	
322.20000	-0.0395	
322.40000	-0.0398	
322.60000	-0.0398	
322.80000	-0.0398	
323.00000	-0.0401	
323.20000	-0.0401	
323.40000	-0.0398	
323.60000	-0.0400	
323.80000	-0.0397	
324.00000	-0.0395	
324.20000	-0.0400	
324.40000	-0.0401	
324.60000	-0.0404	
324.80000	-0.0404	
325.00000	-0.0406	
325.20000	-0.0410	
325.40000	-0.0409	
325.60000	-0.0407	
325.80000	-0.0410	
326.00000	-0.0410	
326.20000	-0.0412	
326.40000	-0.0412	
326.60000	-0.0410	
326.80000	-0.0410	
327.00000	-0.0412	
327.20000	-0.0407	
327.40000	-0.0403	
327.60000	-0.0401	
327.80000	-0.0401	
328.00000	-0.0397	
328.20000	-0.0397	
328.40000	-0.0395	
328.60000	-0.0388	
328.80000	-0.0386	
329.00000	-0.0389	
329.20000	-0.0389	
329.40000	-0.0388	
329.60000	-0.0386	
329.80000	-0.0388	
330.00000	-0.0385	
330.20000	-0.0381	
330.40000	-0.0381	
330.60000	-0.0378	
330.80000	-0.0378	
331.00000	-0.0377	
331.20000	-0.0375	
331.40000	-0.0375	
331.60000	-0.0375	
331.80000	-0.0369	
332.00000	-0.0369	
332.20000	-0.0375	
332.40000	-0.0374	
332.60000	-0.0372	
332.80000	-0.0374	
333.00000	-0.0372	
333.20000	-0.0375	
333.40000	-0.0375	
333.60000	-0.0375	
333.80000	-0.0374	
334.00000	-0.0372	
334.20000	-0.0375	
334.40000	-0.0375	
334.60000	-0.0375	
334.80000	-0.0375	
335.00000	-0.0377	
335.20000	-0.0380	
335.40000	-0.0380	
335.60000	-0.0381	
335.80000	-0.0381	
336.00000	-0.0386	
336.20000	-0.0388	
336.40000	-0.0389	
336.60000	-0.0389	
336.80000	-0.0389	
337.00000	-0.0388	
337.20000	-0.0394	
337.40000	-0.0397	
337.60000	-0.0400	
337.80000	-0.0397	
338.00000	-0.0398	
338.20000	-0.0398	
338.40000	-0.0401	
338.60000	-0.0403	
338.80000	-0.0406	
339.00000	-0.0409	
339.20000	-0.0407	
339.40000	-0.0409	
339.60000	-0.0409	
339.80000	-0.0409	
340.00000	-0.0407	
340.20000	-0.0407	
340.40000	-0.0407	
340.60000	-0.0409	
340.80000	-0.0410	
341.00000	-0.0412	
341.20000	-0.0412	
341.40000	-0.0415	
341.60000	-0.0412	
341.80000	-0.0412	
342.00000	-0.0412	
342.20000	-0.0407	
342.40000	-0.0409	
342.60000	-0.0407	
342.80000	-0.0407	
343.00000	-0.0409	
343.20000	-0.0406	
343.40000	-0.0404	
343.60000	-0.0404	
343.80000	-0.0404	
344.00000	-0.0403	
344.20000	-0.0403	
344.40000	-0.0398	
344.60000	-0.0401	
344.80000	-0.0397	
345.00000	-0.0395	
345.20000	-0.0395	
345.40000	-0.0397	
345.60000	-0.0394	
345.80000	-0.0394	
346.00000	-0.0395	
346.20000	-0.0391	
346.40000	-0.0391	
346.60000	-0.0389	
346.80000	-0.0388	
347.00000	-0.0388	
347.20000	-0.0385	
347.40000	-0.0381	
347.60000	-0.0378	
347.80000	-0.0377	
348.00000	-0.0381	
348.20000	-0.0377	
348.40000	-0.0377	
348.60000	-0.0374	
348.80000	-0.0374	
349.00000	-0.0374	
349.20000	-0.0372	
349.40000	-0.0372	
349.60000	-0.0372	
349.80000	-0.0372	
350.00000	-0.0369	
350.20000	-0.0372	
350.40000	-0.0368	
350.60000	-0.0372	
350.80000	-0.0374	
351.00000	-0.0374	
351.20000	-0.0372	
351.40000	-0.0374	
351.60000	-0.0372	
351.80000	-0.0377	
352.00000	-0.0378	
352.20000	-0.0380	
352.40000	-0.0380	
352.60000	-0.0381	
352.80000	-0.0383	
353.00000	-0.0385	
353.20000	-0.0391	
353.40000	-0.0391	
353.60000	-0.0389	
353.80000	-0.0391	
354.00000	-0.0395	
354.20000	-0.0400	
354.40000	-0.0400	
354.60000	-0.0401	
354.80000	-0.0401	
355.00000	-0.0404	
355.20000	-0.0403	
355.40000	-0.0407	
355.60000	-0.0407	
355.80000	-0.0409	
356.00000	-0.0415	
356.20000	-0.0409	
356.40000	-0.0412	
356.60000	-0.0412	
356.80000	-0.0415	
357.00000	-0.0415	
357.20000	-0.0417	
357.40000	-0.0415	
357.60000	-0.0417	
357.80000	-0.0421	
358.00000	-0.0418	
358.20000	-0.0421	
358.40000	-0.0421	
358.60000	-0.0420	
358.80000	-0.0418	
359.00000	-0.0418	
359.20000	-0.0421	
359.40000	-0.0418	
359.60000	-0.0418	
359.80000	-0.0421	
360.00000	-0.0420	
360.20000	-0.0415	
360.40000	-0.0417	
360.60000	-0.0412	
360.80000	-0.0412	
361.00000	-0.0407	
361.20000	-0.0406	
361.40000	-0.0401	
361.60000	-0.0401	
361.80000	-0.0398	
362.00000	-0.0398	
362.20000	-0.0394	
362.40000	-0.0395	
362.60000	-0.0391	
362.80000	-0.0391	
363.00000	-0.0394	
363.20000	-0.0386	
363.40000	-0.0388	
363.60000	-0.0385	
363.80000	-0.0386	
364.00000	-0.0381	
364.20000	-0.0378	
364.40000	-0.0378	
364.60000	-0.0378	
364.80000	-0.0378	
365.00000	-0.0375	
365.20000	-0.0375	
365.40000	-0.0374	
365.60000	-0.0377	
365.80000	-0.0374	
366.00000	-0.0374	
366.20000	-0.0372	
366.40000	-0.0372	
366.60000	-0.0369	
366.80000	-0.0368	
367.00000	-0.0369	
367.20000	-0.0369	
367.40000	-0.0369	
367.60000	-0.0369	
367.80000	-0.0369	
368.00000	-0.0368	
368.20000	-0.0372	
368.40000	-0.0374	
368.60000	-0.0374	
368.80000	-0.0375	
369.00000	-0.0375	
369.20000	-0.0375	
369.40000	-0.0380	
369.60000	-0.0381	
369.80000	-0.0386	
370.00000	-0.0385	
370.20000	-0.0386	
370.40000	-0.0386	
370.60000	-0.0388	
370.80000	-0.0394	
371.00000	-0.0395	
371.20000	-0.0391	
371.40000	-0.0394	
371.60000	-0.0394	
371.80000	-0.0397	
372.00000	-0.0398	
372.20000	-0.0401	
372.40000	-0.0406	
372.60000	-0.0404	
372.80000	-0.0404	
373.00000	-0.0407	
373.20000	-0.0407	
373.40000	-0.0407	
373.60000	-0.0412	
373.80000	-0.0410	
374.00000	-0.0407	
374.20000	-0.0410	
374.40000	-0.0415	
374.60000	-0.0412	
374.80000	-0.0417	
375.00000	-0.0418	
375.20000	-0.0418	
375.40000	-0.0418	
375.60000	-0.0421	
375.80000	-0.0420	
376.00000	-0.0418	
376.20000	-0.0421	
376.40000	-0.0418	
376.60000	-0.0420	
376.80000	-0.0420	
377.00000	-0.0418	
377.20000	-0.0417	
377.40000	-0.0417	
377.60000	-0.0412	
377.80000	-0.0417	
378.00000	-0.0412	
378.20000	-0.0410	
378.40000	-0.0410	
378.60000	-0.0410	
378.80000	-0.0407	
379.00000	-0.0407	
379.20000	-0.0407	
379.40000	-0.0404	
379.60000	-0.0403	
379.80000	-0.0406	
380.00000	-0.0403	
380.20000	-0.0400	
380.40000	-0.0400	
380.60000	-0.0398	
380.80000	-0.0395	
381.00000	-0.0394	
381.20000	-0.0391	
381.40000	-0.0395	
381.60000	-0.0389	
381.80000	-0.0386	
382.00000	-0.0386	
382.20000	-0.0385	
382.40000	-0.0386	
382.60000	-0.0385	
382.80000	-0.0383	
383.00000	-0.0383	
383.20000	-0.0385	
383.40000	-0.0381	
383.60000	-0.0380	
383.80000	-0.0380	
384.00000	-0.0380	
384.20000	-0.0381	
384.40000	-0.0381	
384.60000	-0.0378	
384.80000	-0.0381	
385.00000	-0.0381	
385.20000	-0.0381	
385.40000	-0.0385	
385.60000	-0.0386	
385.80000	-0.0389	
386.00000	-0.0391	
386.20000	-0.0394	
386.40000	-0.0395	
386.60000	-0.0397	
386.80000	-0.0398	
387.00000	-0.0398	
387.20000	-0.0398	
387.40000	-0.0403	
387.60000	-0.0406	
387.80000	-0.0400	
388.00000	-0.0398	
388.20000	-0.0397	
388.40000	-0.0400	
388.60000	-0.0404	
388.80000	-0.0403	
389.00000	-0.0406	
389.20000	-0.0407	
389.40000	-0.0407	
389.60000	-0.0407	
389.80000	-0.0404	
390.00000	-0.0407	
390.20000	-0.0409	
390.40000	-0.0407	
390.60000	-0.0406	
390.80000	-0.0407	
391.00000	-0.0407	
391.20000	-0.0409	
391.40000	-0.0410	
391.60000	-0.0410	
391.80000	-0.0412	
392.00000	-0.0412	
392.20000	-0.0415	
392.40000	-0.0410	
392.60000	-0.0409	
392.80000	-0.0415	
393.00000	-0.0410	
393.20000	-0.0412	
393.40000	-0.0412	
393.60000	-0.0410	
393.80000	-0.0409	
394.00000	-0.0406	
394.20000	-0.0409	
394.40000	-0.0407	
394.60000	-0.0406	
394.80000	-0.0404	
395.00000	-0.0403	
395.20000	-0.0400	
395.40000	-0.0400	
395.60000	-0.0404	
395.80000	-0.0400	
396.00000	-0.0400	
396.20000	-0.0401	
396.40000	-0.0400	
396.60000	-0.0397	
396.80000	-0.0397	
397.00000	-0.0394	
397.20000	-0.0394	
397.40000	-0.0388	
397.60000	-0.0388	
397.80000	-0.0386	
398.00000	-0.0388	
398.20000	-0.0388	
398.40000	-0.0385	
398.60000	-0.0381	
398.80000	-0.0381	
399.00000	-0.0380	
399.20000	-0.0380	
399.40000	-0.0378	
399.60000	-0.0374	
399.80000	-0.0377	
400.00000	-0.0375	
400.20000	-0.0374	
400.40000	-0.0377	
400.60000	-0.0378	
400.80000	-0.0375	
401.00000	-0.0377	
401.20000	-0.0380	
401.40000	-0.0383	
401.60000	-0.0381	
401.80000	-0.0385	
402.00000	-0.0389	
402.20000	-0.0389	
402.40000	-0.0394	
402.60000	-0.0395	
402.80000	-0.0395	
403.00000	-0.0397	
403.20000	-0.0400	
403.40000	-0.0400	
403.60000	-0.0398	
403.80000	-0.0401	
404.00000	-0.0407	
404.20000	-0.0410	
404.40000	-0.0407	
404.60000	-0.0406	
404.80000	-0.0407	
405.00000	-0.0415	
405.20000	-0.0417	
405.40000	-0.0420	
405.60000	-0.0421	
405.80000	-0.0423	
406.00000	-0.0426	
406.20000	-0.0424	
406.40000	-0.0426	
406.60000	-0.0426	
406.80000	-0.0424	
407.00000	-0.0424	
407.20000	-0.0426	
407.40000	-0.0426	
407.60000	-0.0429	
407.80000	-0.0429	
408.00000	-0.0430	
408.20000	-0.0429	
408.40000	-0.0430	
408.60000	-0.0432	
408.80000	-0.0429	
409.00000	-0.0426	
409.20000	-0.0424	
409.40000	-0.0426	
409.60000	-0.0424	
409.80000	-0.0424	
410.00000	-0.0424	
410.20000	-0.0418	
410.40000	-0.0417	
410.60000	-0.0421	
410.80000	-0.0415	
411.00000	-0.0412	
411.20000	-0.0412	
411.40000	-0.0410	
411.60000	-0.0407	
411.80000	-0.0406	
412.00000	-0.0409	
412.20000	-0.0409	
412.40000	-0.0409	
412.60000	-0.0406	
412.80000	-0.0409	
413.00000	-0.0404	
413.20000	-0.0401	
413.40000	-0.0403	
413.60000	-0.0401	
413.80000	-0.0401	
414.00000	-0.0395	
414.20000	-0.0395	
414.40000	-0.0391	
414.60000	-0.0394	
414.80000	-0.0386	
415.00000	-0.0389	
415.20000	-0.0381	
415.40000	-0.0380	
415.60000	-0.0381	
415.80000	-0.0381	
416.00000	-0.0380	
416.20000	-0.0377	
416.40000	-0.0378	
416.60000	-0.0378	
416.80000	-0.0375	
417.00000	-0.0378	
417.20000	-0.0374	
417.40000	-0.0380	
417.60000	-0.0378	
417.80000	-0.0381	
418.00000	-0.0381	
418.20000	-0.0381	
418.40000	-0.0386	
418.60000	-0.0388	
418.80000	-0.0389	
419.00000	-0.0395	
419.20000	-0.0397	
419.40000	-0.0395	
419.60000	-0.0401	
419.80000	-0.0407	
420.00000	-0.0407	
420.20000	-0.0406	
420.40000	-0.0407	
420.60000	-0.0410	
420.80000	-0.0417	
421.00000	-0.0415	
421.20000	-0.0415	
421.40000	-0.0415	
421.60000	-0.0415	
421.80000	-0.0418	
422.00000	-0.0420	
422.20000	-0.0423	
422.40000	-0.0424	
422.60000	-0.0424	
422.80000	-0.0420	
423.00000	-0.0423	
423.20000	-0.0421	
423.40000	-0.0421	
423.60000	-0.0421	
423.80000	-0.0421	
424.00000	-0.0417	
424.20000	-0.0421	
424.40000	-0.0421	
424.60000	-0.0421	
424.80000	-0.0424	
425.00000	-0.0424	
425.20000	-0.0424	
425.40000	-0.0424	
425.60000	-0.0424	
425.80000	-0.0421	
426.00000	-0.0423	
426.20000	-0.0426	
426.40000	-0.0421	
426.60000	-0.0421	
426.80000	-0.0421	
427.00000	-0.0420	
427.20000	-0.0420	
427.40000	-0.0415	
427.60000	-0.0410	
427.80000	-0.0410	
428.00000	-0.0409	
428.20000	-0.0409	
428.40000	-0.0409	
428.60000	-0.0407	
428.80000	-0.0409	
429.00000	-0.0407	
429.20000	-0.0404	
429.40000	-0.0404	
429.60000	-0.0407	
429.80000	-0.0401	
430.00000	-0.0403	
430.20000	-0.0401	
430.40000	-0.0397	
430.60000	-0.0398	
430.80000	-0.0394	
431.00000	-0.0394	
431.20000	-0.0394	
431.40000	-0.0391	
431.60000	-0.0389	
431.80000	-0.0388	
432.00000	-0.0385	
432.20000	-0.0388	
432.40000	-0.0385	
432.60000	-0.0385	
432.80000	-0.0381	
433.00000	-0.0383	
433.20000	-0.0380	
433.40000	-0.0381	
433.60000	-0.0381	
433.80000	-0.0381	
434.00000	-0.0380	
434.20000	-0.0381	
434.40000	-0.0381	
434.60000	-0.0383	
434.80000	-0.0383	
435.00000	-0.0385	
435.20000	-0.0383	
435.40000	-0.0386	
435.60000	-0.0386	
435.80000	-0.0389	
436.00000	-0.0391	
436.20000	-0.0391	
436.40000	-0.0391	
436.60000	-0.0395	
436.80000	-0.0394	
437.00000	-0.0395	
437.20000	-0.0397	
437.40000	-0.0401	
437.60000	-0.0403	
437.80000	-0.0398	
438.00000	-0.0401	
438.20000	-0.0400	
438.40000	-0.0403	
438.60000	-0.0407	
438.80000	-0.0410	
439.00000	-0.0412	
439.20000	-0.0417	
439.40000	-0.0415	
439.60000	-0.0417	
439.80000	-0.0417	
440.00000	-0.0420	
440.20000	-0.0421	
440.40000	-0.0421	
440.60000	-0.0423	
440.80000	-0.0424	
441.00000	-0.0424	
441.20000	-0.0426	
441.40000	-0.0427	
441.60000	-0.0426	
441.80000	-0.0429	
442.00000	-0.0429	
442.20000	-0.0426	
442.40000	-0.0426	
442.60000	-0.0427	
442.80000	-0.0427	
443.00000	-0.0426	
443.20000	-0.0426	
443.40000	-0.0429	
443.60000	-0.0427	
443.80000	-0.0424	
444.00000	-0.0423	
444.20000	-0.0421	
444.40000	-0.0417	
444.60000	-0.0417	
444.80000	-0.0415	
445.00000	-0.0415	
445.20000	-0.0410	
445.40000	-0.0412	
445.60000	-0.0412	
445.80000	-0.0409	
446.00000	-0.0407	
446.20000	-0.0406	
446.40000	-0.0407	
446.60000	-0.0407	
446.80000	-0.0406	
447.00000	-0.0401	
447.20000	-0.0400	
447.40000	-0.0400	
447.60000	-0.0398	
447.80000	-0.0397	
448.00000	-0.0398	
448.20000	-0.0395	
448.40000	-0.0391	
448.60000	-0.0391	
448.80000	-0.0391	
449.00000	-0.0389	
449.20000	-0.0388	
449.40000	-0.0391	
449.60000	-0.0389	
449.80000	-0.0389	
450.00000	-0.0388	
450.20000	-0.0386	
450.40000	-0.0385	
450.60000	-0.0388	
450.80000	-0.0386	
451.00000	-0.0389	
451.20000	-0.0395	
451.40000	-0.0394	
451.60000	-0.0397	
451.80000	-0.0403	
452.00000	-0.0404	
452.20000	-0.0404	
452.40000	-0.0407	
452.60000	-0.0406	
452.80000	-0.0407	
453.00000	-0.0409	
453.20000	-0.0412	
453.40000	-0.0410	
453.60000	-0.0409	
453.80000	-0.0415	
454.00000	-0.0415	
454.20000	-0.0418	
454.40000	-0.0418	
454.60000	-0.0418	
454.80000	-0.0415	
455.00000	-0.0417	
455.20000	-0.0420	
455.40000	-0.0420	
455.60000	-0.0421	
455.80000	-0.0424	
456.00000	-0.0421	
456.20000	-0.0420	
456.40000	-0.0424	
456.60000	-0.0424	
456.80000	-0.0424	
457.00000	-0.0424	
457.20000	-0.0426	
457.40000	-0.0424	
457.60000	-0.0427	
457.80000	-0.0426	
458.00000	-0.0426	
458.20000	-0.0427	
458.40000	-0.0430	
458.60000	-0.0429	
458.80000	-0.0430	
459.00000	-0.0427	
459.20000	-0.0430	
459.40000	-0.0427	
459.60000	-0.0427	
459.80000	-0.0424	
460.00000	-0.0426	
460.20000	-0.0424	
460.40000	-0.0424	
460.60000	-0.0420	
460.80000	-0.0417	
461.00000	-0.0412	
461.20000	-0.0410	
461.40000	-0.0407	
461.60000	-0.0404	
461.80000	-0.0406	
462.00000	-0.0403	
462.20000	-0.0404	
462.40000	-0.0403	
462.60000	-0.0404	
462.80000	-0.0400	
463.00000	-0.0400	
463.20000	-0.0403	
463.40000	-0.0400	
463.60000	-0.0395	
463.80000	-0.0394	
464.00000	-0.0389	
464.20000	-0.0391	
464.40000	-0.0389	
464.60000	-0.0386	
464.80000	-0.0388	
465.00000	-0.0386	
465.20000	-0.0386	
465.40000	-0.0381	
465.60000	-0.0383	
465.80000	-0.0383	
466.00000	-0.0378	
466.20000	-0.0377	
466.40000	-0.0380	
466.60000	-0.0378	
466.80000	-0.0378	
467.00000	-0.0378	
467.20000	-0.0381	
467.40000	-0.0380	
467.60000	-0.0381	
467.80000	-0.0385	
468.00000	-0.0383	
468.20000	-0.0383	
468.40000	-0.0383	
468.60000	-0.0383	
468.80000	-0.0386	
469.00000	-0.0388	
469.20000	-0.0389	
469.40000	-0.0388	
469.60000	-0.0395	
469.80000	-0.0395	
470.00000	-0.0395	
470.20000	-0.0395	
470.40000	-0.0398	
470.60000	-0.0401	
470.80000	-0.0406	
471.00000	-0.0404	
471.20000	-0.0404	
471.40000	-0.0404	
471.60000	-0.0404	
471.80000	-0.0406	
472.00000	-0.0409	
472.20000	-0.0410	
472.40000	-0.0412	
472.60000	-0.0418	
472.80000	-0.0417	
473.00000	-0.0415	
473.20000	-0.0417	
473.40000	-0.0418	
473.60000	-0.0420	
473.80000	-0.0420	
474.00000	-0.0418	
474.20000	-0.0420	
474.40000	-0.0423	
474.60000	-0.0423	
474.80000	-0.0423	
475.00000	-0.0426	
475.20000	-0.0427	
475.40000	-0.0427	
475.60000	-0.0427	
475.80000	-0.0427	
476.00000	-0.0429	
476.20000	-0.0429	
476.40000	-0.0429	
476.60000	-0.0427	
476.80000	-0.0426	
477.00000	-0.0426	
477.20000	-0.0426	
477.40000	-0.0424	
477.60000	-0.0418	
477.80000	-0.0417	
478.00000	-0.0420	
478.20000	-0.0415	
478.40000	-0.0412	
478.60000	-0.0409	
478.80000	-0.0407	
479.00000	-0.0407	
479.20000	-0.0406	
479.40000	-0.0404	
479.60000	-0.0406	
479.80000	-0.0404	
480.00000	-0.0404	
480.20000	-0.0403	
480.40000	-0.0403	
480.60000	-0.0401	
480.80000	-0.0400	
481.00000	-0.0400	
481.20000	-0.0398	
481.40000	-0.0400	
481.60000	-0.0400	
481.80000	-0.0397	
482.00000	-0.0395	
482.20000	-0.0395	
482.40000	-0.0389	
482.60000	-0.0389	
482.80000	-0.0389	
483.00000	-0.0391	
483.20000	-0.0391	
483.40000	-0.0388	
483.60000	-0.0391	
483.80000	-0.0388	
484.00000	-0.0385	
484.20000	-0.0388	
484.40000	-0.0389	
484.60000	-0.0388	
484.80000	-0.0386	
485.00000	-0.0391	
485.20000	-0.0391	
485.40000	-0.0391	
485.60000	-0.0394	
485.80000	-0.0397	
486.00000	-0.0397	
486.20000	-0.0401	
486.40000	-0.0403	
486.60000	-0.0401	
486.80000	-0.0403	
487.00000	-0.0404	
487.20000	-0.0404	
487.40000	-0.0407	
487.60000	-0.0409	
487.80000	-0.0406	
488.00000	-0.0406	
488.20000	-0.0407	
488.40000	-0.0409	
488.60000	-0.0407	
488.80000	-0.0415	
489.00000	-0.0417	
489.20000	-0.0420	
489.40000	-0.0418	
489.60000	-0.0421	
489.80000	-0.0420	
490.00000	-0.0418	
490.20000	-0.0420	
490.40000	-0.0420	
490.60000	-0.0415	
490.80000	-0.0418	
491.00000	-0.0418	
491.20000	-0.0420	
491.40000	-0.0423	
491.60000	-0.0426	
491.80000	-0.0426	
492.00000	-0.0427	
492.20000	-0.0424	
492.40000	-0.0423	
492.60000	-0.0423	
492.80000	-0.0427	
493.00000	-0.0424	
493.20000	-0.0421	
493.40000	-0.0421	
493.60000	-0.0421	
493.80000	-0.0418	
494.00000	-0.0420	
494.20000	-0.0417	
494.40000	-0.0412	
494.60000	-0.0410	
494.80000	-0.0410	
495.00000	-0.0404	
495.20000	-0.0406	
495.40000	-0.0403	
495.60000	-0.0404	
495.80000	-0.0401	
496.00000	-0.0403	
496.20000	-0.0400	
496.40000	-0.0401	
496.60000	-0.0398	
496.80000	-0.0397	
497.00000	-0.0395	
497.20000	-0.0394	
497.40000	-0.0394	
497.60000	-0.0389	
497.80000	-0.0388	
498.00000	-0.0388	
498.20000	-0.0386	
498.40000	-0.0383	
498.60000	-0.0380	
498.80000	-0.0381	
499.00000	-0.0380	
499.20000	-0.0380	
499.40000	-0.0378	
499.60000	-0.0378	
499.80000	-0.0380	
500.00000	-0.0381	
500.20000	-0.0378	
500.40000	-0.0380	
500.60000	-0.0378	
500.80000	-0.0378	
501.00000	-0.0381	
501.20000	-0.0381	
501.40000	-0.0380	
501.60000	-0.0381	
501.80000	-0.0381	
502.00000	-0.0386	
502.20000	-0.0386	
502.40000	-0.0386	
502.60000	-0.0391	
502.80000	-0.0391	
503.00000	-0.0395	
503.20000	-0.0397	
503.40000	-0.0398	
503.60000	-0.0398	
503.80000	-0.0400	
504.00000	-0.0403	
504.20000	-0.0407	
504.40000	-0.0407	
504.60000	-0.0406	
504.80000	-0.0409	
505.00000	-0.0415	
505.20000	-0.0417	
505.40000	-0.0417	
505.60000	-0.0423	
505.80000	-0.0424	
506.00000	-0.0423	
506.20000	-0.0423	
506.40000	-0.0423	
506.60000	-0.0426	
506.80000	-0.0424	
507.00000	-0.0421	
507.20000	-0.0423	
507.40000	-0.0426	
507.60000	-0.0424	
507.80000	-0.0426	
508.00000	-0.0427	
508.20000	-0.0426	
508.40000	-0.0429	
508.60000	-0.0430	
508.80000	-0.0427	
509.00000	-0.0429	
509.20000	-0.0426	
509.40000	-0.0429	
509.60000	-0.0430	
509.80000	-0.0427	
510.00000	-0.0426	
510.20000	-0.0427	
510.40000	-0.0426	
510.60000	-0.0427	
510.80000	-0.0424	
511.00000	-0.0420	
511.20000	-0.0420	
511.40000	-0.0417	
511.60000	-0.0418	
511.80000	-0.0417	
512.00000	-0.0417	
512.20000	-0.0415	
512.40000	-0.0415	
512.60000	-0.0417	
512.80000	-0.0417	
513.00000	-0.0417	
513.20000	-0.0415	
513.40000	-0.0409	
513.60000	-0.0406	
513.80000	-0.0407	
514.00000	-0.0406	
514.20000	-0.0403	
514.40000	-0.0401	
514.60000	-0.0401	
514.80000	-0.0398	
515.00000	-0.0394	
515.20000	-0.0394	
515.40000	-0.0391	
515.60000	-0.0391	
515.80000	-0.0389	
516.00000	-0.0391	
516.20000	-0.0388	
516.40000	-0.0389	
516.60000	-0.0385	
516.80000	-0.0385	
517.00000	-0.0385	
517.20000	-0.0385	
517.40000	-0.0380	
517.60000	-0.0383	
517.80000	-0.0386	
518.00000	-0.0383	
518.20000	-0.0385	
518.40000	-0.0383	
518.60000	-0.0386	
518.80000	-0.0388	
519.00000	-0.0394	
519.20000	-0.0395	
519.40000	-0.0394	
519.60000	-0.0397	
519.80000	-0.0398	
520.00000	-0.0397	
520.20000	-0.0398	
520.40000	-0.0403	
520.60000	-0.0403	
520.80000	-0.0407	
521.00000	-0.0404	
521.20000	-0.0403	
521.40000	-0.0403	
521.60000	-0.0406	
521.80000	-0.0412	
522.00000	-0.0410	
522.20000	-0.0415	
522.40000	-0.0412	
522.60000	-0.0415	
522.80000	-0.0412	
523.00000	-0.0410	
523.20000	-0.0417	
523.40000	-0.0415	
523.60000	-0.0415	
523.80000	-0.0417	
524.00000	-0.0415	
524.20000	-0.0418	
524.40000	-0.0420	
524.60000	-0.0420	
524.80000	-0.0420	
525.00000	-0.0423	
525.20000	-0.0423	
525.40000	-0.0421	
525.60000	-0.0423	
525.80000	-0.0426	
526.00000	-0.0424	
526.20000	-0.0426	
526.40000	-0.0426	
526.60000	-0.0426	
526.80000	-0.0421	
527.00000	-0.0421	
527.20000	-0.0418	
527.40000	-0.0417	
527.60000	-0.0415	
527.80000	-0.0409	
528.00000	-0.0407	
528.20000	-0.0407	
528.40000	-0.0404	
528.60000	-0.0401	
528.80000	-0.0401	
529.00000	-0.0400	
529.20000	-0.0401	
529.40000	-0.0400	
529.60000	-0.0400	
529.80000	-0.0401	
530.00000	-0.0398	
530.20000	-0.0400	
530.40000	-0.0400	
530.60000	-0.0395	
530.80000	-0.0394	
531.00000	-0.0395	
531.20000	-0.0391	
531.40000	-0.0394	
531.60000	-0.0389	
531.80000	-0.0388	
532.00000	-0.0389	
532.20000	-0.0389	
532.40000	-0.0391	
532.60000	-0.0388	
532.80000	-0.0386	
533.00000	-0.0388	
533.20000	-0.0386	
533.40000	-0.0388	
533.60000	-0.0386	
533.80000	-0.0385	
534.00000	-0.0385	
534.20000	-0.0386	
534.40000	-0.0383	
534.60000	-0.0381	
534.80000	-0.0385	
535.00000	-0.0381	
535.20000	-0.0383	
535.40000	-0.0386	
535.60000	-0.0385	
535.80000	-0.0385	
536.00000	-0.0383	
536.20000	-0.0386	
536.40000	-0.0391	
536.60000	-0.0388	
536.80000	-0.0389	
537.00000	-0.0395	
537.20000	-0.0398	
537.40000	-0.0401	
537.60000	-0.0404	
537.80000	-0.0404	
538.00000	-0.0404	
538.20000	-0.0407	
538.40000	-0.0407	
538.60000	-0.0410	
538.80000	-0.0415	
539.00000	-0.0418	
539.20000	-0.0415	
539.40000	-0.0420	
539.60000	-0.0421	
539.80000	-0.0421	
540.00000	-0.0421	
540.20000	-0.0429	
540.40000	-0.0429	
540.60000	-0.0424	
540.80000	-0.0427	
541.00000	-0.0429	
541.20000	-0.0426	
541.40000	-0.0426	
541.60000	-0.0427	
541.80000	-0.0427	
542.00000	-0.0426	
542.20000	-0.0426	
542.40000	-0.0426	
542.60000	-0.0424	
542.80000	-0.0424	
543.00000	-0.0420	
543.20000	-0.0418	
543.40000	-0.0418	
543.60000	-0.0418	
543.80000	-0.0415	
544.00000	-0.0418	
544.20000	-0.0415	
544.40000	-0.0415	
544.60000	-0.0415	
544.80000	-0.0410	
545.00000	-0.0407	
545.20000	-0.0406	
545.40000	-0.0409	
545.60000	-0.0410	
545.80000	-0.0407	
546.00000	-0.0407	
546.20000	-0.0407	
546.40000	-0.0406	
546.60000	-0.0403	
546.80000	-0.0403	
547.00000	-0.0398	
547.20000	-0.0400	
547.40000	-0.0398	
547.60000	-0.0397	
547.80000	-0.0395	
548.00000	-0.0395	
548.20000	-0.0391	
548.40000	-0.0395	
548.60000	-0.0394	
548.80000	-0.0389	
549.00000	-0.0391	
549.20000	-0.0386	
549.40000	-0.0388	
549.60000	-0.0386	
549.80000	-0.0386	
550.00000	-0.0388	
550.20000	-0.0385	
550.40000	-0.0386	
550.60000	-0.0386	
550.80000	-0.0383	
551.00000	-0.0385	
551.20000	-0.0385	
551.40000	-0.0383	
551.60000	-0.0385	
551.80000	-0.0385	
552.00000	-0.0388	
552.20000	-0.0389	
552.40000	-0.0389	
552.60000	-0.0389	
552.80000	-0.0395	
553.00000	-0.0397	
553.20000	-0.0398	
553.40000	-0.0400	
553.60000	-0.0398	
553.80000	-0.0403	
554.00000	-0.0404	
554.20000	-0.0409	
554.40000	-0.0406	
554.60000	-0.0406	
554.80000	-0.0407	
555.00000	-0.0407	
555.20000	-0.0407	
555.40000	-0.0410	
555.60000	-0.0415	
555.80000	-0.0417	
556.00000	-0.0415	
556.20000	-0.0412	
556.40000	-0.0415	
556.60000	-0.0412	
556.80000	-0.0417	
557.00000	-0.0412	
557.20000	-0.0410	
557.40000	-0.0415	
557.60000	-0.0415	
557.80000	-0.0412	
558.00000	-0.0412	
558.20000	-0.0417	
558.40000	-0.0418	
558.60000	-0.0418	
558.80000	-0.0418	
559.00000	-0.0418	
559.20000	-0.0418	
559.40000	-0.0421	
559.60000	-0.0418	
559.80000	-0.0420	
560.00000	-0.0418	
560.20000	-0.0420	
560.40000	-0.0415	
560.60000	-0.0417	
560.80000	-0.0417	
561.00000	-0.0410	
561.20000	-0.0409	
561.40000	-0.0407	
561.60000	-0.0406	
561.80000	-0.0406	
562.00000	-0.0401	
562.20000	-0.0401	
562.40000	-0.0404	
562.60000	-0.0403	
562.80000	-0.0401	
563.00000	-0.0403	
563.20000	-0.0400	
563.40000	-0.0395	
563.60000	-0.0395	
563.80000	-0.0394	
564.00000	-0.0388	
564.20000	-0.0386	
564.40000	-0.0385	
564.60000	-0.0386	
564.80000	-0.0385	
565.00000	-0.0383	
565.20000	-0.0380	
565.40000	-0.0380	
565.60000	-0.0377	
565.80000	-0.0378	
566.00000	-0.0377	
566.20000	-0.0374	
566.40000	-0.0377	
566.60000	-0.0377	
566.80000	-0.0374	
567.00000	-0.0375	
567.20000	-0.0375	
567.40000	-0.0374	
567.60000	-0.0375	
567.80000	-0.0375	
568.00000	-0.0378	
568.20000	-0.0377	
568.40000	-0.0378	
568.60000	-0.0381	
568.80000	-0.0381	
569.00000	-0.0385	
569.20000	-0.0389	
569.40000	-0.0389	
569.60000	-0.0391	
569.80000	-0.0397	
570.00000	-0.0394	
570.20000	-0.0395	
570.40000	-0.0395	
570.60000	-0.0400	
570.80000	-0.0404	
571.00000	-0.0401	
571.20000	-0.0401	
571.40000	-0.0397	
571.60000	-0.0401	
571.80000	-0.0404	
572.00000	-0.0406	
572.20000	-0.0407	
572.40000	-0.0412	
572.60000	-0.0410	
572.80000	-0.0409	
573.00000	-0.0412	
573.20000	-0.0410	
573.40000	-0.0412	
573.60000	-0.0410	
573.80000	-0.0412	
574.00000	-0.0412	
574.20000	-0.0415	
574.40000	-0.0410	
574.60000	-0.0415	
574.80000	-0.0412	
575.00000	-0.0412	
575.20000	-0.0412	
575.40000	-0.0412	
575.60000	-0.0415	
575.80000	-0.0410	
576.00000	-0.0409	
576.20000	-0.0407	
576.40000	-0.0407	
576.60000	-0.0406	
576.80000	-0.0406	
577.00000	-0.0406	
577.20000	-0.0404	
577.40000	-0.0401	
577.60000	-0.0401	
577.80000	-0.0403	
578.00000	-0.0400	
578.20000	-0.0401	
578.40000	-0.0398	
578.60000	-0.0398	
578.80000	-0.0397	
579.00000	-0.0397	
579.20000	-0.0398	
579.40000	-0.0400	
579.60000	-0.0398	
579.80000	-0.0400	
580.00000	-0.0395	
580.20000	-0.0394	
580.40000	-0.0395	
580.60000	-0.0394	
580.80000	-0.0389	
581.00000	-0.0389	
581.20000	-0.0391	
581.40000	-0.0386	
581.60000	-0.0386	
581.80000	-0.0385	
582.00000	-0.0383	
582.20000	-0.0385	
582.40000	-0.0383	
582.60000	-0.0378	
582.80000	-0.0380	
583.00000	-0.0383	
583.20000	-0.0381	
583.40000	-0.0380	
583.60000	-0.0381	
583.80000	-0.0378	
584.00000	-0.0378	
584.20000	-0.0377	
584.40000	-0.0380	
584.60000	-0.0380	
584.80000	-0.0378	
585.00000	-0.0380	
585.20000	-0.0378	
585.40000	-0.0377	
585.60000	-0.0381	
585.80000	-0.0381	
586.00000	-0.0381	
586.20000	-0.0383	
586.40000	-0.0385	
586.60000	-0.0383	
586.80000	-0.0381	
587.00000	-0.0383	
587.20000	-0.0385	
587.40000	-0.0391	
587.60000	-0.0388	
587.80000	-0.0388	
588.00000	-0.0388	
588.20000	-0.0391	
588.40000	-0.0394	
588.60000	-0.0398	
588.80000	-0.0403	
589.00000	-0.0403	
589.20000	-0.0404	
589.40000	-0.0403	
589.60000	-0.0407	
589.80000	-0.0409	
590.00000	-0.0410	
590.20000	-0.0412	
590.40000	-0.0417	
590.60000	-0.0410	
590.80000	-0.0418	
591.00000	-0.0420	
591.20000	-0.0418	
591.40000	-0.0418	
591.60000	-0.0420	
591.80000	-0.0418	
592.00000	-0.0415	
592.20000	-0.0417	
592.40000	-0.0415	
592.60000	-0.0412	
592.80000	-0.0412	
593.00000	-0.0412	
593.20000	-0.0412	
593.40000	-0.0412	
593.60000	-0.0409	
593.80000	-0.0406	
594.00000	-0.0404	
594.20000	-0.0403	
594.40000	-0.0401	
594.60000	-0.0397	
594.80000	-0.0397	
595.00000	-0.0394	
595.20000	-0.0388	
595.40000	-0.0389	
595.60000	-0.0391	
595.80000	-0.0388	
596.00000	-0.0388	
596.20000	-0.0394	
596.40000	-0.0391	
596.60000	-0.0391	
596.80000	-0.0388	
597.00000	-0.0389	
597.20000	-0.0389	
597.40000	-0.0388	
597.60000	-0.0386	
597.80000	-0.0385	
598.00000	-0.0388	
598.20000	-0.0381	
598.40000	-0.0381	
598.60000	-0.0381	
598.80000	-0.0383	
599.00000	-0.0383	
599.20000	-0.0381	
599.40000	-0.0381	
599.60000	-0.0378	
599.80000	-0.0375	
600.00000	-0.0378	
600.20000	-0.0377	
600.40000	-0.0375	
600.60000	-0.0377	
600.80000	-0.0375	
601.00000	-0.0375	
601.20000	-0.0375	
601.40000	-0.0377	
601.60000	-0.0377	
601.80000	-0.0380	
602.00000	-0.0381	
602.20000	-0.0385	
602.40000	-0.0386	
602.60000	-0.0383	
602.80000	-0.0386	
603.00000	-0.0386	
603.20000	-0.0388	
603.40000	-0.0391	
603.60000	-0.0391	
603.80000	-0.0395	
604.00000	-0.0397	
604.20000	-0.0400	
604.40000	-0.0398	
604.60000	-0.0398	
604.80000	-0.0398	
605.00000	-0.0400	
605.20000	-0.0400	
605.40000	-0.0404	
605.60000	-0.0406	
605.80000	-0.0406	
606.00000	-0.0403	
606.20000	-0.0403	
606.40000	-0.0404	
606.60000	-0.0406	
606.80000	-0.0407	
607.00000	-0.0407	
607.20000	-0.0407	
607.40000	-0.0410	
607.60000	-0.0410	
607.80000	-0.0412	
608.00000	-0.0412	
608.20000	-0.0412	
608.40000	-0.0417	
608.60000	-0.0415	
608.80000	-0.0415	
609.00000	-0.0412	
609.20000	-0.0412	
609.40000	-0.0417	
609.60000	-0.0415	
609.80000	-0.0418	
610.00000	-0.0412	
610.20000	-0.0412	
610.40000	-0.0409	
610.60000	-0.0409	
610.80000	-0.0407	
611.00000	-0.0404	
611.20000	-0.0403	
611.40000	-0.0401	
611.60000	-0.0397	
611.80000	-0.0398	
612.00000	-0.0395	
612.20000	-0.0395	
612.40000	-0.0398	
612.60000	-0.0395	
612.80000	-0.0391	
613.00000	-0.0395	
613.20000	-0.0395	
613.40000	-0.0391	
613.60000	-0.0388	
613.80000	-0.0391	
614.00000	-0.0383	
614.20000	-0.0381	
614.40000	-0.0380	
614.60000	-0.0380	
614.80000	-0.0378	
615.00000	-0.0374	
615.20000	-0.0369	
615.40000	-0.0369	
615.60000	-0.0368	
615.80000	-0.0368	
616.00000	-0.0366	
616.20000	-0.0363	
616.40000	-0.0360	
616.60000	-0.0363	
616.80000	-0.0359	
617.00000	-0.0363	
617.20000	-0.0360	
617.40000	-0.0360	
617.60000	-0.0359	
617.80000	-0.0362	
618.00000	-0.0363	
618.20000	-0.0366	
618.40000	-0.0366	
618.60000	-0.0366	
618.80000	-0.0372	
619.00000	-0.0372	
619.20000	-0.0374	
619.40000	-0.0375	
619.60000	-0.0378	
619.80000	-0.0383	
620.00000	-0.0380	
620.20000	-0.0383	
620.40000	-0.0386	
620.60000	-0.0389	
620.80000	-0.0394	
621.00000	-0.0389	
621.20000	-0.0388	
621.40000	-0.0391	
621.60000	-0.0397	
621.80000	-0.0398	
622.00000	-0.0400	
622.20000	-0.0401	
622.40000	-0.0404	
622.60000	-0.0401	
622.80000	-0.0401	
623.00000	-0.0403	
623.20000	-0.0403	
623.40000	-0.0406	
623.60000	-0.0406	
623.80000	-0.0406	
624.00000	-0.0407	
624.20000	-0.0410	
624.40000	-0.0409	
624.60000	-0.0409	
624.80000	-0.0409	
625.00000	-0.0412	
625.20000	-0.0415	
625.40000	-0.0410	
625.60000	-0.0410	
625.80000	-0.0409	
626.00000	-0.0410	
626.20000	-0.0412	
626.40000	-0.0407	
626.60000	-0.0406	
626.80000	-0.0409	
627.00000	-0.0406	
627.20000	-0.0406	
627.40000	-0.0406	
627.60000	-0.0401	
627.80000	-0.0401	
628.00000	-0.0398	
628.20000	-0.0398	
628.40000	-0.0397	
628.60000	-0.0395	
628.80000	-0.0395	
629.00000	-0.0394	
629.20000	-0.0395	
629.40000	-0.0395	
629.60000	-0.0395	
629.80000	-0.0394	
630.00000	-0.0397	
630.20000	-0.0391	
630.40000	-0.0391	
630.60000	-0.0389	
630.80000	-0.0391	
631.00000	-0.0389	
631.20000	-0.0389	
631.40000	-0.0386	
631.60000	-0.0386	
631.80000	-0.0386	
632.00000	-0.0388	
632.20000	-0.0389	
632.40000	-0.0383	
632.60000	-0.0383	
632.80000	-0.0381	
633.00000	-0.0380	
633.20000	-0.0380	
633.40000	-0.0380	
633.60000	-0.0380	
633.80000	-0.0380	
634.00000	-0.0378	
634.20000	-0.0381	
634.40000	-0.0381	
634.60000	-0.0383	
634.80000	-0.0383	
635.00000	-0.0386	
635.20000	-0.0386	
635.40000	-0.0386	
635.60000	-0.0388	
635.80000	-0.0391	
636.00000	-0.0394	
636.20000	-0.0398	
636.40000	-0.0398	
636.60000	-0.0395	
636.80000	-0.0395	
637.00000	-0.0398	
637.20000	-0.0400	
637.40000	-0.0406	
637.60000	-0.0401	
637.80000	-0.0403	
638.00000	-0.0403	
638.20000	-0.0404	
638.40000	-0.0404	
638.60000	-0.0407	
638.80000	-0.0409	
639.00000	-0.0412	
639.20000	-0.0412	
639.40000	-0.0410	
639.60000	-0.0415	
639.80000	-0.0412	
640.00000	-0.0417	
640.20000	-0.0417	
640.40000	-0.0415	
640.60000	-0.0415	
640.80000	-0.0417	
641.00000	-0.0420	
641.20000	-0.0420	
641.40000	-0.0420	
641.60000	-0.0418	
641.80000	-0.0424	
642.00000	-0.0421	
642.20000	-0.0423	
642.40000	-0.0418	
642.60000	-0.0420	
642.80000	-0.0421	
643.00000	-0.0420	
643.20000	-0.0417	
643.40000	-0.0415	
643.60000	-0.0417	
643.80000	-0.0417	
644.00000	-0.0412	
644.20000	-0.0410	
644.40000	-0.0407	
644.60000	-0.0406	
644.80000	-0.0406	
645.00000	-0.0406	
645.20000	-0.0401	
645.40000	-0.0403	
645.60000	-0.0403	
645.80000	-0.0398	
646.00000	-0.0400	
646.20000	-0.0398	
646.40000	-0.0397	
646.60000	-0.0395	
646.80000	-0.0391	
647.00000	-0.0389	
647.20000	-0.0388	
647.40000	-0.0388	
647.60000	-0.0385	
647.80000	-0.0381	
648.00000	-0.0383	
648.20000	-0.0381	
648.40000	-0.0380	
648.60000	-0.0375	
648.80000	-0.0378	
649.00000	-0.0377	
649.20000	-0.0375	
649.40000	-0.0374	
649.60000	-0.0369	
649.80000	-0.0372	
650.00000	-0.0375	
650.20000	-0.0372	
650.40000	-0.0369	
650.60000	-0.0372	
650.80000	-0.0372	
651.00000	-0.0374	
651.20000	-0.0369	
651.40000	-0.0372	
651.60000	-0.0372	
651.80000	-0.0374	
652.00000	-0.0378	
652.20000	-0.0378	
652.40000	-0.0380	
652.60000	-0.0383	
652.80000	-0.0386	
653.00000	-0.0386	
653.20000	-0.0389	
653.40000	-0.0388	
653.60000	-0.0389	
653.80000	-0.0395	
654.00000	-0.0394	
654.20000	-0.0394	
654.40000	-0.0395	
654.60000	-0.0391	
654.80000	-0.0395	
655.00000	-0.0398	
655.20000	-0.0400	
655.40000	-0.0400	
655.60000	-0.0404	
655.80000	-0.0404	
656.00000	-0.0401	
656.20000	-0.0404	
656.40000	-0.0404	
656.60000	-0.0407	
656.80000	-0.0406	
657.00000	-0.0404	
657.20000	-0.0403	
657.40000	-0.0407	
657.60000	-0.0409	
657.80000	-0.0406	
658.00000	-0.0409	
658.20000	-0.0412	
658.40000	-0.0412	
658.60000	-0.0412	
658.80000	-0.0412	
659.00000	-0.0410	
659.20000	-0.0410	
659.40000	-0.0412	
659.60000	-0.0410	
659.80000	-0.0412	
660.00000	-0.0412	
660.20000	-0.0410	
660.40000	-0.0415	
660.60000	-0.0410	
660.80000	-0.0409	
661.00000	-0.0406	
661.20000	-0.0409	
661.40000	-0.0407	
661.60000	-0.0403	
661.80000	-0.0403	
662.00000	-0.0404	
662.20000	-0.0404	
662.40000	-0.0401	
662.60000	-0.0403	
662.80000	-0.0404	
663.00000	-0.0401	
663.20000	-0.0397	
663.40000	-0.0397	
663.60000	-0.0394	
663.80000	-0.0395	
664.00000	-0.0389	
664.20000	-0.0389	
664.40000	-0.0386	
664.60000	-0.0385	
664.80000	-0.0381	
665.00000	-0.0378	
665.20000	-0.0377	
665.40000	-0.0377	
665.60000	-0.0375	
665.80000	-0.0377	
666.00000	-0.0375	
666.20000	-0.0374	
666.40000	-0.0372	
666.60000	-0.0374	
666.80000	-0.0374	
667.00000	-0.0372	
667.20000	-0.0372	
667.40000	-0.0369	
667.60000	-0.0372	
667.80000	-0.0372	
668.00000	-0.0369	
668.20000	-0.0374	
668.40000	-0.0377	
668.60000	-0.0378	
668.80000	-0.0380	
669.00000	-0.0381	
669.20000	-0.0385	
669.40000	-0.0385	
669.60000	-0.0389	
669.80000	-0.0394	
670.00000	-0.0391	
670.20000	-0.0391	
670.40000	-0.0397	
670.60000	-0.0400	
670.80000	-0.0400	
671.00000	-0.0401	
671.20000	-0.0401	
671.40000	-0.0401	
671.60000	-0.0401	
671.80000	-0.0406	
672.00000	-0.0407	
672.20000	-0.0412	
672.40000	-0.0415	
672.60000	-0.0412	
672.80000	-0.0412	
673.00000	-0.0415	
673.20000	-0.0410	
673.40000	-0.0415	
673.60000	-0.0415	
673.80000	-0.0417	
674.00000	-0.0418	
674.20000	-0.0418	
674.40000	-0.0421	
674.60000	-0.0421	
674.80000	-0.0420	
675.00000	-0.0421	
675.20000	-0.0423	
675.40000	-0.0420	
675.60000	-0.0421	
675.80000	-0.0417	
676.00000	-0.0418	
676.20000	-0.0418	
676.40000	-0.0415	
676.60000	-0.0415	
676.80000	-0.0415	
677.00000	-0.0409	
677.20000	-0.0409	
677.40000	-0.0409	
677.60000	-0.0404	
677.80000	-0.0403	
678.00000	-0.0404	
678.20000	-0.0403	
678.40000	-0.0400	
678.60000	-0.0400	
678.80000	-0.0401	
679.00000	-0.0398	
679.20000	-0.0401	
679.40000	-0.0397	
679.60000	-0.0398	
679.80000	-0.0397	
680.00000	-0.0394	
680.20000	-0.0394	
680.40000	-0.0391	
680.60000	-0.0389	
680.80000	-0.0386	
681.00000	-0.0385	
681.20000	-0.0385	
681.40000	-0.0383	
681.60000	-0.0380	
681.80000	-0.0378	
682.00000	-0.0380	
682.20000	-0.0380	
682.40000	-0.0375	
682.60000	-0.0375	
682.80000	-0.0375	
683.00000	-0.0374	
683.20000	-0.0369	
683.40000	-0.0372	
683.60000	-0.0369	
683.80000	-0.0372	
684.00000	-0.0372	
684.20000	-0.0374	
684.40000	-0.0372	
684.60000	-0.0375	
684.80000	-0.0377	
685.00000	-0.0378	
685.20000	-0.0381	
685.40000	-0.0383	
685.60000	-0.0383	
685.80000	-0.0386	
686.00000	-0.0389	
686.20000	-0.0394	
686.40000	-0.0394	
686.60000	-0.0397	
686.80000	-0.0395	
687.00000	-0.0398	
687.20000	-0.0398	
687.40000	-0.0406	
687.60000	-0.0406	
687.80000	-0.0406	
688.00000	-0.0406	
688.20000	-0.0410	
688.40000	-0.0412	
688.60000	-0.0412	
688.80000	-0.0417	
689.00000	-0.0420	
689.20000	-0.0418	
689.40000	-0.0417	
689.60000	-0.0420	
689.80000	-0.0418	
690.00000	-0.0418	
690.20000	-0.0421	
690.40000	-0.0420	
690.60000	-0.0420	
690.80000	-0.0421	
691.00000	-0.0420	
691.20000	-0.0421	
691.40000	-0.0420	
691.60000	-0.0421	
691.80000	-0.0423	
692.00000	-0.0421	
692.20000	-0.0424	
692.40000	-0.0421	
692.60000	-0.0424	
692.80000	-0.0424	
693.00000	-0.0420	
693.20000	-0.0420	
693.40000	-0.0420	
693.60000	-0.0420	
693.80000	-0.0418	
694.00000	-0.0418	
694.20000	-0.0412	
694.40000	-0.0410	
694.60000	-0.0407	
694.80000	-0.0409	
695.00000	-0.0409	
695.20000	-0.0406	
695.40000	-0.0407	
695.60000	-0.0404	
695.80000	-0.0406	
696.00000	-0.0404	
696.20000	-0.0406	
696.40000	-0.0401	
696.60000	-0.0403	
696.80000	-0.0400	
697.00000	-0.0398	
697.20000	-0.0398	
697.40000	-0.0397	
697.60000	-0.0395	
697.80000	-0.0395	
698.00000	-0.0397	
698.20000	-0.0395	
698.40000	-0.0394	
698.60000	-0.0391	
698.80000	-0.0394	
699.00000	-0.0388	
699.20000	-0.0389	
699.40000	-0.0386	
699.60000	-0.0386	
699.80000	-0.0388	
700.00000	-0.0385	
700.20000	-0.0385	
700.40000	-0.0386	
700.60000	-0.0385	
700.80000	-0.0383	
701.00000	-0.0386	
701.20000	-0.0386	
701.40000	-0.0388	
701.60000	-0.0389	
701.80000	-0.0391	
702.00000	-0.0394	
702.20000	-0.0395	
702.40000	-0.0397	
702.60000	-0.0398	
702.80000	-0.0403	
703.00000	-0.0407	
703.20000	-0.0404	
703.40000	-0.0409	
703.60000	-0.0410	
703.80000	-0.0415	
704.00000	-0.0418	
704.20000	-0.0417	
704.40000	-0.0420	
704.60000	-0.0418	
704.80000	-0.0420	
705.00000	-0.0423	
705.20000	-0.0423	
705.40000	-0.0426	
705.60000	-0.0426	
705.80000	-0.0427	
706.00000	-0.0424	
706.20000	-0.0424	
706.40000	-0.0424	
706.60000	-0.0424	
706.80000	-0.0426	
707.00000	-0.0424	
707.20000	-0.0424	
707.40000	-0.0424	
707.60000	-0.0423	
707.80000	-0.0424	
708.00000	-0.0421	
708.20000	-0.0423	
708.40000	-0.0421	
708.60000	-0.0421	
708.80000	-0.0423	
709.00000	-0.0424	
709.20000	-0.0420	
709.40000	-0.0420	
709.60000	-0.0415	
709.80000	-0.0421	
710.00000	-0.0420	
710.20000	-0.0418	
710.40000	-0.0417	
710.60000	-0.0415	
710.80000	-0.0407	
711.00000	-0.0410	
711.20000	-0.0409	
711.40000	-0.0407	
711.60000	-0.0406	
711.80000	-0.0407	
712.00000	-0.0406	
712.20000	-0.0407	
712.40000	-0.0406	
712.60000	-0.0407	
712.80000	-0.0404	
713.00000	-0.0404	
713.20000	-0.0404	
713.40000	-0.0401	
713.60000	-0.0403	
713.80000	-0.0400	
714.00000	-0.0401	
714.20000	-0.0401	
714.40000	-0.0400	
714.60000	-0.0400	
714.80000	-0.0400	
715.00000	-0.0400	
715.20000	-0.0398	
715.40000	-0.0397	
715.60000	-0.0397	
715.80000	-0.0398	
716.00000	-0.0395	
716.20000	-0.0397	
716.40000	-0.0397	
716.60000	-0.0395	
716.80000	-0.0397	
717.00000	-0.0395	
717.20000	-0.0395	
717.40000	-0.0397	
717.60000	-0.0398	
717.80000	-0.0395	
718.00000	-0.0395	
718.20000	-0.0400	
718.40000	-0.0397	
718.60000	-0.0398	
718.80000	-0.0404	
719.00000	-0.0404	
719.20000	-0.0406	
719.40000	-0.0409	
719.60000	-0.0409	
719.80000	-0.0407	
720.00000	-0.0412	
720.20000	-0.0412	
720.40000	-0.0415	
720.60000	-0.0417	
720.80000	-0.0418	
721.00000	-0.0412	
721.20000	-0.0417	
721.40000	-0.0418	
721.60000	-0.0420	
721.80000	-0.0423	
722.00000	-0.0424	
722.20000	-0.0424	
722.40000	-0.0424	
722.60000	-0.0424	
722.80000	-0.0426	
723.00000	-0.0426	
723.20000	-0.0426	
723.40000	-0.0427	
723.60000	-0.0429	
723.80000	-0.0429	
724.00000	-0.0427	
724.20000	-0.0427	
724.40000	-0.0429	
724.60000	-0.0429	
724.80000	-0.0430	
725.00000	-0.0429	
725.20000	-0.0430	
725.40000	-0.0430	
725.60000	-0.0432	
725.80000	-0.0430	
726.00000	-0.0432	
726.20000	-0.0430	
726.40000	-0.0432	
726.60000	-0.0432	
726.80000	-0.0430	
727.00000	-0.0427	
727.20000	-0.0427	
727.40000	-0.0426	
727.60000	-0.0424	
727.80000	-0.0421	
728.00000	-0.0421	
728.20000	-0.0418	
728.40000	-0.0417	
728.60000	-0.0417	
728.80000	-0.0412	
729.00000	-0.0412	
729.20000	-0.0415	
729.40000	-0.0415	
729.60000	-0.0417	
729.80000	-0.0412	
730.00000	-0.0415	
730.20000	-0.0410	
730.40000	-0.0407	
730.60000	-0.0406	
730.80000	-0.0404	
731.00000	-0.0403	
731.20000	-0.0403	
731.40000	-0.0404	
731.60000	-0.0397	
731.80000	-0.0397	
732.00000	-0.0400	
732.20000	-0.0398	
732.40000	-0.0397	
732.60000	-0.0394	
732.80000	-0.0395	
733.00000	-0.0395	
733.20000	-0.0395	
733.40000	-0.0394	
733.60000	-0.0394	
733.80000	-0.0391	
734.00000	-0.0388	
734.20000	-0.0391	
734.40000	-0.0391	
734.60000	-0.0389	
734.80000	-0.0391	
735.00000	-0.0395	
735.20000	-0.0395	
735.40000	-0.0398	
735.60000	-0.0400	
735.80000	-0.0398	
736.00000	-0.0400	
736.20000	-0.0404	
736.40000	-0.0406	
736.60000	-0.0410	
736.80000	-0.0407	
737.00000	-0.0407	
737.20000	-0.0412	
737.40000	-0.0417	
737.60000	-0.0418	
737.80000	-0.0418	
738.00000	-0.0420	
738.20000	-0.0423	
738.40000	-0.0423	
738.60000	-0.0426	
738.80000	-0.0427	
739.00000	-0.0429	
739.20000	-0.0427	
739.40000	-0.0427	
739.60000	-0.0429	
739.80000	-0.0426	
740.00000	-0.0426	
740.20000	-0.0426	
740.40000	-0.0424	
740.60000	-0.0429	
740.80000	-0.0429	
741.00000	-0.0430	
741.20000	-0.0430	
741.40000	-0.0432	
741.60000	-0.0427	
741.80000	-0.0430	
742.00000	-0.0430	
742.20000	-0.0430	
742.40000	-0.0430	
742.60000	-0.0430	
742.80000	-0.0432	
743.00000	-0.0430	
743.20000	-0.0430	
743.40000	-0.0427	
743.60000	-0.0427	
743.80000	-0.0426	
744.00000	-0.0424	
744.20000	-0.0421	
744.40000	-0.0420	
744.60000	-0.0420	
744.80000	-0.0415	
745.00000	-0.0412	
745.20000	-0.0410	
745.40000	-0.0407	
745.60000	-0.0407	
745.80000	-0.0406	
746.00000	-0.0409	
746.20000	-0.0404	
746.40000	-0.0401	
746.60000	-0.0404	
746.80000	-0.0400	
747.00000	-0.0397	
747.20000	-0.0398	
747.40000	-0.0395	
747.60000	-0.0394	
747.80000	-0.0394	
748.00000	-0.0389	
748.20000	-0.0386	
748.40000	-0.0386	
748.60000	-0.0385	
748.80000	-0.0386	
749.00000	-0.0385	
749.20000	-0.0385	
749.40000	-0.0383	
749.60000	-0.0383	
749.80000	-0.0386	
750.00000	-0.0386	
750.20000	-0.0386	
750.40000	-0.0389	
750.60000	-0.0389	
750.80000	-0.0389	
751.00000	-0.0394	
751.20000	-0.0394	
751.40000	-0.0395	
751.60000	-0.0397	
751.80000	-0.0400	
752.00000	-0.0401	
752.20000	-0.0404	
752.40000	-0.0403	
752.60000	-0.0406	
752.80000	-0.0407	
753.00000	-0.0412	
753.20000	-0.0412	
753.40000	-0.0415	
753.60000	-0.0417	
753.80000	-0.0417	
754.00000	-0.0424	
754.20000	-0.0423	
754.40000	-0.0421	
754.60000	-0.0420	
754.80000	-0.0423	
755.00000	-0.0424	
755.20000	-0.0424	
755.40000	-0.0426	
755.60000	-0.0427	
755.80000	-0.0432	
756.00000	-0.0427	
756.20000	-0.0430	
756.40000	-0.0432	
756.60000	-0.0432	
756.80000	-0.0433	
757.00000	-0.0433	
757.20000	-0.0433	
757.40000	-0.0436	
757.60000	-0.0433	
757.80000	-0.0436	
758.00000	-0.0436	
758.20000	-0.0438	
758.40000	-0.0433	
758.60000	-0.0438	
758.80000	-0.0433	
759.00000	-0.0436	
759.20000	-0.0433	
759.40000	-0.0432	
759.60000	-0.0432	
759.80000	-0.0429	
760.00000	-0.0426	
760.20000	-0.0427	
760.40000	-0.0424	
760.60000	-0.0421	
760.80000	-0.0420	
761.00000	-0.0418	
761.20000	-0.0412	
761.40000	-0.0412	
761.60000	-0.0409	
761.80000	-0.0412	
762.00000	-0.0409	
762.20000	-0.0409	
762.40000	-0.0407	
762.60000	-0.0407	
762.80000	-0.0407	
763.00000	-0.0406	
763.20000	-0.0407	
763.40000	-0.0403	
763.60000	-0.0403	
763.80000	-0.0401	
764.00000	-0.0400	
764.20000	-0.0401	
764.40000	-0.0401	
764.60000	-0.0400	
764.80000	-0.0397	
765.00000	-0.0397	
765.20000	-0.0398	
765.40000	-0.0398	
765.60000	-0.0398	
765.80000	-0.0400	
766.00000	-0.0398	
766.20000	-0.0397	
766.40000	-0.0395	
766.60000	-0.0397	
766.80000	-0.0397	
767.00000	-0.0397	
767.20000	-0.0398	
767.40000	-0.0397	
767.60000	-0.0400	
767.80000	-0.0398	
768.00000	-0.0400	
768.20000	-0.0398	
768.40000	-0.0397	
768.60000	-0.0397	
768.80000	-0.0400	
769.00000	-0.0403	
769.20000	-0.0404	
769.40000	-0.0407	
769.60000	-0.0409	
769.80000	-0.0409	
770.00000	-0.0409	
770.20000	-0.0412	
770.40000	-0.0415	
770.60000	-0.0418	
770.80000	-0.0418	
771.00000	-0.0418	
771.20000	-0.0418	
771.40000	-0.0418	
771.60000	-0.0421	
771.80000	-0.0423	
772.00000	-0.0424	
772.20000	-0.0429	
772.40000	-0.0430	
772.60000	-0.0427	
772.80000	-0.0432	
773.00000	-0.0432	
773.20000	-0.0430	
773.40000	-0.0436	
773.60000	-0.0433	
773.80000	-0.0432	
774.00000	-0.0436	
774.20000	-0.0433	
774.40000	-0.0436	
774.60000	-0.0433	
774.80000	-0.0438	
775.00000	-0.0439	
775.20000	-0.0438	
775.40000	-0.0436	
775.60000	-0.0438	
775.80000	-0.0433	
776.00000	-0.0438	
776.20000	-0.0432	
776.40000	-0.0433	
776.60000	-0.0436	
776.80000	-0.0432	
777.00000	-0.0433	
777.20000	-0.0432	
777.40000	-0.0427	
777.60000	-0.0426	
777.80000	-0.0426	
778.00000	-0.0426	
778.20000	-0.0426	
778.40000	-0.0418	
778.60000	-0.0420	
778.80000	-0.0418	
779.00000	-0.0421	
779.20000	-0.0415	
779.40000	-0.0417	
779.60000	-0.0417	
779.80000	-0.0412	
780.00000	-0.0409	
780.20000	-0.0410	
780.40000	-0.0407	
780.60000	-0.0404	
780.80000	-0.0407	
781.00000	-0.0407	
781.20000	-0.0407	
781.40000	-0.0404	
781.60000	-0.0401	
781.80000	-0.0400	
782.00000	-0.0401	
782.20000	-0.0398	
782.40000	-0.0398	
782.60000	-0.0395	
782.80000	-0.0397	
783.00000	-0.0397	
783.20000	-0.0395	
783.40000	-0.0395	
783.60000	-0.0395	
783.80000	-0.0395	
784.00000	-0.0395	
784.20000	-0.0397	
784.40000	-0.0397	
784.60000	-0.0397	
784.80000	-0.0400	
785.00000	-0.0398	
785.20000	-0.0403	
785.40000	-0.0404	
785.60000	-0.0406	
785.80000	-0.0407	
786.00000	-0.0407	
786.20000	-0.0412	
786.40000	-0.0412	
786.60000	-0.0415	
786.80000	-0.0412	
787.00000	-0.0412	
787.20000	-0.0417	
787.40000	-0.0418	
787.60000	-0.0412	
787.80000	-0.0415	
788.00000	-0.0415	
788.20000	-0.0412	
788.40000	-0.0418	
788.60000	-0.0420	
788.80000	-0.0421	
789.00000	-0.0418	
789.20000	-0.0418	
789.40000	-0.0418	
789.60000	-0.0418	
789.80000	-0.0415	
790.00000	-0.0421	
790.20000	-0.0420	
790.40000	-0.0421	
790.60000	-0.0423	
790.80000	-0.0424	
791.00000	-0.0427	
791.20000	-0.0429	
791.40000	-0.0426	
791.60000	-0.0427	
791.80000	-0.0429	
792.00000	-0.0430	
792.20000	-0.0429	
792.40000	-0.0430	
792.60000	-0.0427	
792.80000	-0.0430	
793.00000	-0.0429	
793.20000	-0.0432	
793.40000	-0.0429	
793.60000	-0.0432	
793.80000	-0.0429	
794.00000	-0.0427	
794.20000	-0.0426	
794.40000	-0.0424	
794.60000	-0.0423	
794.80000	-0.0420	
795.00000	-0.0418	
795.20000	-0.0415	
795.40000	-0.0415	
795.60000	-0.0417	
795.80000	-0.0415	
796.00000	-0.0420	
796.20000	-0.0415	
796.40000	-0.0410	
796.60000	-0.0410	
796.80000	-0.0409	
797.00000	-0.0406	
797.20000	-0.0407	
797.40000	-0.0404	
797.60000	-0.0403	
797.80000	-0.0404	
798.00000	-0.0403	
798.20000	-0.0397	
798.40000	-0.0395	
798.60000	-0.0397	
798.80000	-0.0397	
799.00000	-0.0394	
799.20000	-0.0394	
799.40000	-0.0391	
799.60000	-0.0391	
799.80000	-0.0391	
800.00000	-0.0388	
800.20000	-0.0388	
800.40000	-0.0385	
800.60000	-0.0385	
800.80000	-0.0381	
801.00000	-0.0385	
801.20000	-0.0386	
801.40000	-0.0385	
801.60000	-0.0386	
801.80000	-0.0389	
802.00000	-0.0394	
802.20000	-0.0391	
802.40000	-0.0394	
802.60000	-0.0395	
802.80000	-0.0398	
803.00000	-0.0401	
803.20000	-0.0404	
803.40000	-0.0403	
803.60000	-0.0403	
803.80000	-0.0406	
804.00000	-0.0409	
804.20000	-0.0407	
804.40000	-0.0407	
804.60000	-0.0407	
804.80000	-0.0410	
805.00000	-0.0412	
805.20000	-0.0415	
805.40000	-0.0418	
805.60000	-0.0420	
805.80000	-0.0424	
806.00000	-0.0424	
806.20000	-0.0424	
806.40000	-0.0423	
806.60000	-0.0426	
806.80000	-0.0427	
807.00000	-0.0429	
807.20000	-0.0429	
807.40000	-0.0430	
807.60000	-0.0430	
807.80000	-0.0433	
808.00000	-0.0432	
808.20000	-0.0432	
808.40000	-0.0430	
808.60000	-0.0430	
808.80000	-0.0430	
809.00000	-0.0433	
809.20000	-0.0432	
809.40000	-0.0432	
809.60000	-0.0433	
809.80000	-0.0433	
810.00000	-0.0430	
810.20000	-0.0427	
810.40000	-0.0429	
810.60000	-0.0423	
810.80000	-0.0423	
811.00000	-0.0421	
811.20000	-0.0418	
811.40000	-0.0415	
811.60000	-0.0412	
811.80000	-0.0415	
812.00000	-0.0410	
812.20000	-0.0412	
812.40000	-0.0412	
812.60000	-0.0409	
812.80000	-0.0410	
813.00000	-0.0407	
813.20000	-0.0406	
813.40000	-0.0403	
813.60000	-0.0403	
813.80000	-0.0401	
814.00000	-0.0395	
814.20000	-0.0395	
814.40000	-0.0391	
814.60000	-0.0389	
814.80000	-0.0389	
815.00000	-0.0385	
815.20000	-0.0383	
815.40000	-0.0383	
815.60000	-0.0385	
815.80000	-0.0385	
816.00000	-0.0381	
816.20000	-0.0380	
816.40000	-0.0383	
816.60000	-0.0380	
816.80000	-0.0380	
817.00000	-0.0381	
817.20000	-0.0380	
817.40000	-0.0383	
817.60000	-0.0386	
817.80000	-0.0386	
818.00000	-0.0388	
818.20000	-0.0389	
818.40000	-0.0389	
818.60000	-0.0394	
818.80000	-0.0397	
819.00000	-0.0395	
819.20000	-0.0398	
819.40000	-0.0401	
819.60000	-0.0407	
819.80000	-0.0407	
820.00000	-0.0407	
820.20000	-0.0409	
820.40000	-0.0412	
820.60000	-0.0418	
820.80000	-0.0420	
821.00000	-0.0418	
821.20000	-0.0415	
821.40000	-0.0418	
821.60000	-0.0418	
821.80000	-0.0421	
822.00000	-0.0423	
822.20000	-0.0423	
822.40000	-0.0424	
822.60000	-0.0423	
822.80000	-0.0423	
823.00000	-0.0424	
823.20000	-0.0424	
823.40000	-0.0424	
823.60000	-0.0423	
823.80000	-0.0421	
824.00000	-0.0421	
824.20000	-0.0423	
824.40000	-0.0424	
824.60000	-0.0420	
824.80000	-0.0421	
825.00000	-0.0420	
825.20000	-0.0418	
825.40000	-0.0421	
825.60000	-0.0421	
825.80000	-0.0421	
826.00000	-0.0420	
826.20000	-0.0418	
826.40000	-0.0417	
826.60000	-0.0415	
826.80000	-0.0417	
827.00000	-0.0417	
827.20000	-0.0417	
827.40000	-0.0415	
827.60000	-0.0412	
827.80000	-0.0412	
828.00000	-0.0409	
828.20000	-0.0410	
828.40000	-0.0409	
828.60000	-0.0410	
828.80000	-0.0410	
829.00000	-0.0410	
829.20000	-0.0407	
829.40000	-0.0407	
829.60000	-0.0407	
829.80000	-0.0406	
830.00000	-0.0404	
830.20000	-0.0401	
830.40000	-0.0400	
830.60000	-0.0395	
830.80000	-0.0394	
831.00000	-0.0394	
831.20000	-0.0394	
831.40000	-0.0389	
831.60000	-0.0389	
831.80000	-0.0386	
832.00000	-0.0388	
832.20000	-0.0385	
832.40000	-0.0381	
832.60000	-0.0385	
832.80000	-0.0385	
833.00000	-0.0383	
833.20000	-0.0383	
833.40000	-0.0386	
833.60000	-0.0385	
833.80000	-0.0386	
834.00000	-0.0386	
834.20000	-0.0388	
834.40000	-0.0391	
834.60000	-0.0394	
834.80000	-0.0397	
835.00000	-0.0395	
835.20000	-0.0397	
835.40000	-0.0397	
835.60000	-0.0401	
835.80000	-0.0403	
836.00000	-0.0406	
836.20000	-0.0410	
836.40000	-0.0410	
836.60000	-0.0412	
836.80000	-0.0412	
837.00000	-0.0417	
837.20000	-0.0421	
837.40000	-0.0421	
837.60000	-0.0418	
837.80000	-0.0418	
838.00000	-0.0424	
838.20000	-0.0423	
838.40000	-0.0424	
838.60000	-0.0427	
838.80000	-0.0429	
839.00000	-0.0430	
839.20000	-0.0430	
839.40000	-0.0430	
839.60000	-0.0429	
839.80000	-0.0429	
840.00000	-0.0432	
840.20000	-0.0429	
840.40000	-0.0429	
840.60000	-0.0432	
840.80000	-0.0429	
841.00000	-0.0429	
841.20000	-0.0424	
841.40000	-0.0421	
841.60000	-0.0424	
841.80000	-0.0423	
842.00000	-0.0426	
842.20000	-0.0421	
842.40000	-0.0420	
842.60000	-0.0424	
842.80000	-0.0420	
843.00000	-0.0418	
843.20000	-0.0417	
843.40000	-0.0417	
843.60000	-0.0415	
843.80000	-0.0412	
844.00000	-0.0410	
844.20000	-0.0406	
844.40000	-0.0406	
844.60000	-0.0403	
844.80000	-0.0401	
845.00000	-0.0401	
845.20000	-0.0400	
845.40000	-0.0397	
845.60000	-0.0398	
845.80000	-0.0400	
846.00000	-0.0401	
846.20000	-0.0400	
846.40000	-0.0398	
846.60000	-0.0397	
846.80000	-0.0391	
847.00000	-0.0394	
847.20000	-0.0389	
847.40000	-0.0388	
847.60000	-0.0388	
847.80000	-0.0386	
848.00000	-0.0388	
848.20000	-0.0383	
848.40000	-0.0385	
848.60000	-0.0383	
848.80000	-0.0386	
849.00000	-0.0383	
849.20000	-0.0383	
849.40000	-0.0381	
849.60000	-0.0385	
849.80000	-0.0386	
850.00000	-0.0385	
850.20000	-0.0385	
850.40000	-0.0380	
850.60000	-0.0385	
850.80000	-0.0386	
851.00000	-0.0386	
851.20000	-0.0389	
851.40000	-0.0388	
851.60000	-0.0389	
851.80000	-0.0395	
852.00000	-0.0395	
852.20000	-0.0397	
852.40000	-0.0400	
852.60000	-0.0404	
852.80000	-0.0406	
853.00000	-0.0406	
853.20000	-0.0406	
853.40000	-0.0407	
853.60000	-0.0407	
853.80000	-0.0410	
854.00000	-0.0412	
854.20000	-0.0407	
854.40000	-0.0409	
854.60000	-0.0407	
854.80000	-0.0409	
855.00000	-0.0412	
855.20000	-0.0417	
855.40000	-0.0417	
855.60000	-0.0418	
855.80000	-0.0417	
856.00000	-0.0418	
856.20000	-0.0417	
856.40000	-0.0417	
856.60000	-0.0417	
856.80000	-0.0415	
857.00000	-0.0417	
857.20000	-0.0420	
857.40000	-0.0418	
857.60000	-0.0418	
857.80000	-0.0418	
858.00000	-0.0417	
858.20000	-0.0417	
858.40000	-0.0418	
858.60000	-0.0417	
858.80000	-0.0415	
859.00000	-0.0417	
859.20000	-0.0412	
859.40000	-0.0409	
859.60000	-0.0410	
859.80000	-0.0407	
860.00000	-0.0410	
860.20000	-0.0407	
860.40000	-0.0406	
860.60000	-0.0406	
860.80000	-0.0401	
861.00000	-0.0404	
861.20000	-0.0403	
861.40000	-0.0403	
861.60000	-0.0403	
861.80000	-0.0401	
862.00000	-0.0400	
862.20000	-0.0401	
862.40000	-0.0401	
862.60000	-0.0403	
862.80000	-0.0401	
863.00000	-0.0400	
863.20000	-0.0398	
863.40000	-0.0395	
863.60000	-0.0397	
863.80000	-0.0397	
864.00000	-0.0398	
864.20000	-0.0394	
864.40000	-0.0395	
864.60000	-0.0389	
864.80000	-0.0388	
865.00000	-0.0388	
865.20000	-0.0388	
865.40000	-0.0386	
865.60000	-0.0388	
865.80000	-0.0386	
866.00000	-0.0386	
866.20000	-0.0386	
866.40000	-0.0388	
866.60000	-0.0381	
866.80000	-0.0386	
867.00000	-0.0388	
867.20000	-0.0383	
867.40000	-0.0386	
867.60000	-0.0386	
867.80000	-0.0385	
868.00000	-0.0385	
868.20000	-0.0388	
868.40000	-0.0386	
868.60000	-0.0389	
868.80000	-0.0391	
869.00000	-0.0395	
869.20000	-0.0394	
869.40000	-0.0398	
869.60000	-0.0401	
869.80000	-0.0401	
870.00000	-0.0400	
870.20000	-0.0404	
870.40000	-0.0407	
870.60000	-0.0407	
870.80000	-0.0407	
871.00000	-0.0407	
871.20000	-0.0406	
871.40000	-0.0407	
871.60000	-0.0412	
871.80000	-0.0415	
872.00000	-0.0418	
872.20000	-0.0417	
872.40000	-0.0418	
872.60000	-0.0417	
872.80000	-0.0417	
873.00000	-0.0415	
873.20000	-0.0412	
873.40000	-0.0417	
873.60000	-0.0415	
873.80000	-0.0412	
874.00000	-0.0415	
874.20000	-0.0417	
874.40000	-0.0417	
874.60000	-0.0410	
874.80000	-0.0410	
875.00000	-0.0409	
875.20000	-0.0412	
875.40000	-0.0407	
875.60000	-0.0406	
875.80000	-0.0407	
876.00000	-0.0406	
876.20000	-0.0406	
876.40000	-0.0407	
876.60000	-0.0406	
876.80000	-0.0406	
877.00000	-0.0404	
877.20000	-0.0407	
877.40000	-0.0404	
877.60000	-0.0404	
877.80000	-0.0401	
878.00000	-0.0398	
878.20000	-0.0395	
878.40000	-0.0394	
878.60000	-0.0394	
878.80000	-0.0394	
879.00000	-0.0391	
879.20000	-0.0391	
879.40000	-0.0394	
879.60000	-0.0391	
879.80000	-0.0389	
880.00000	-0.0388	
880.20000	-0.0388	
880.40000	-0.0386	
880.60000	-0.0383	
880.80000	-0.0381	
881.00000	-0.0377	
881.20000	-0.0380	
881.40000	-0.0378	
881.60000	-0.0377	
881.80000	-0.0377	
882.00000	-0.0377	
882.20000	-0.0377	
882.40000	-0.0378	
882.60000	-0.0378	
882.80000	-0.0377	
883.00000	-0.0374	
883.20000	-0.0372	
883.40000	-0.0374	
883.60000	-0.0372	
883.80000	-0.0374	
884.00000	-0.0374	
884.20000	-0.0377	
884.40000	-0.0375	
884.60000	-0.0377	
884.80000	-0.0381	
885.00000	-0.0380	
885.20000	-0.0380	
885.40000	-0.0385	
885.60000	-0.0388	
885.80000	-0.0386	
886.00000	-0.0391	
886.20000	-0.0397	
886.40000	-0.0394	
886.60000	-0.0395	
886.80000	-0.0398	
887.00000	-0.0401	
887.20000	-0.0401	
887.40000	-0.0403	
887.60000	-0.0401	
887.80000	-0.0400	
888.00000	-0.0404	
888.20000	-0.0406	
888.40000	-0.0407	
888.60000	-0.0412	
888.80000	-0.0410	
889.00000	-0.0412	
889.20000	-0.0410	
889.40000	-0.0410	
889.60000	-0.0410	
889.80000	-0.0409	
890.00000	-0.0415	
890.20000	-0.0412	
890.40000	-0.0415	
890.60000	-0.0418	
890.80000	-0.0415	
891.00000	-0.0418	
891.20000	-0.0418	
891.40000	-0.0417	
891.60000	-0.0415	
891.80000	-0.0418	
892.00000	-0.0415	
892.20000	-0.0415	
892.40000	-0.0420	
892.60000	-0.0418	
892.80000	-0.0418	
893.00000	-0.0418	
893.20000	-0.0418	
893.40000	-0.0418	
893.60000	-0.0417	
893.80000	-0.0417	
894.00000	-0.0415	
894.20000	-0.0410	
894.40000	-0.0410	
894.60000	-0.0409	
894.80000	-0.0406	
895.00000	-0.0404	
895.20000	-0.0403	
895.40000	-0.0401	
895.60000	-0.0404	
895.80000	-0.0401	
896.00000	-0.0403	
896.20000	-0.0401	
896.40000	-0.0395	
896.60000	-0.0397	
896.80000	-0.0388	
897.00000	-0.0391	
897.20000	-0.0386	
897.40000	-0.0385	
897.60000	-0.0380	
897.80000	-0.0381	
898.00000	-0.0380	
898.20000	-0.0378	
898.40000	-0.0378	
898.60000	-0.0377	
898.80000	-0.0377	
899.00000	-0.0375	
899.20000	-0.0377	
899.40000	-0.0372	
899.60000	-0.0372	
899.80000	-0.0374	
900.00000	-0.0372	
900.20000	-0.0372	
900.40000	-0.0374	
900.60000	-0.0375	
900.80000	-0.0375	
901.00000	-0.0374	
901.20000	-0.0377	
901.40000	-0.0378	
901.60000	-0.0381	
901.80000	-0.0380	
902.00000	-0.0381	
902.20000	-0.0381	
902.40000	-0.0386	
902.60000	-0.0386	
902.80000	-0.0386	
903.00000	-0.0394	
903.20000	-0.0394	
903.40000	-0.0394	
903.60000	-0.0395	
903.80000	-0.0397	
904.00000	-0.0400	
904.20000	-0.0400	
904.40000	-0.0400	
904.60000	-0.0400	
904.80000	-0.0403	
905.00000	-0.0407	
905.20000	-0.0409	
905.40000	-0.0415	
905.60000	-0.0417	
905.80000	-0.0418	
906.00000	-0.0415	
906.20000	-0.0418	
906.40000	-0.0418	
906.60000	-0.0418	
906.80000	-0.0421	
907.00000	-0.0421	
907.20000	-0.0421	
907.40000	-0.0420	
907.60000	-0.0421	
907.80000	-0.0418	
908.00000	-0.0417	
908.20000	-0.0412	
908.40000	-0.0417	
908.60000	-0.0417	
908.80000	-0.0418	
909.00000	-0.0415	
909.20000	-0.0417	
909.40000	-0.0412	
909.60000	-0.0412	
909.80000	-0.0409	
910.00000	-0.0409	
910.20000	-0.0409	
910.40000	-0.0407	
910.60000	-0.0406	
910.80000	-0.0404	
911.00000	-0.0401	
911.20000	-0.0398	
911.40000	-0.0398	
911.60000	-0.0398	
911.80000	-0.0397	
912.00000	-0.0395	
912.20000	-0.0394	
912.40000	-0.0394	
912.60000	-0.0394	
912.80000	-0.0389	
913.00000	-0.0386	
913.20000	-0.0386	
913.40000	-0.0383	
913.60000	-0.0381	
913.80000	-0.0380	
914.00000	-0.0378	
914.20000	-0.0381	
914.40000	-0.0380	
914.60000	-0.0378	
914.80000	-0.0377	
915.00000	-0.0375	
915.20000	-0.0377	
915.40000	-0.0375	
915.60000	-0.0374	
915.80000	-0.0374	
916.00000	-0.0372	
916.20000	-0.0375	
916.40000	-0.0375	
916.60000	-0.0374	
916.80000	-0.0375	
917.00000	-0.0377	
917.20000	-0.0377	
917.40000	-0.0378	
917.60000	-0.0378	
917.80000	-0.0380	
918.00000	-0.0380	
918.20000	-0.0380	
918.40000	-0.0381	
918.60000	-0.0385	
918.80000	-0.0388	
919.00000	-0.0389	
919.20000	-0.0389	
919.40000	-0.0395	
919.60000	-0.0397	
919.80000	-0.0395	
920.00000	-0.0398	
920.20000	-0.0398	
920.40000	-0.0400	
920.60000	-0.0406	
920.80000	-0.0404	
921.00000	-0.0400	
921.20000	-0.0403	
921.40000	-0.0407	
921.60000	-0.0410	
921.80000	-0.0410	
922.00000	-0.0417	
922.20000	-0.0420	
922.40000	-0.0418	
922.60000	-0.0415	
922.80000	-0.0421	
923.00000	-0.0420	
923.20000	-0.0421	
923.40000	-0.0423	
923.60000	-0.0421	
923.80000	-0.0420	
924.00000	-0.0423	
924.20000	-0.0423	
924.40000	-0.0427	
924.60000	-0.0426	
924.80000	-0.0423	
925.00000	-0.0423	
925.20000	-0.0423	
925.40000	-0.0426	
925.60000	-0.0424	
925.80000	-0.0424	
926.00000	-0.0423	
926.20000	-0.0421	
926.40000	-0.0421	
926.60000	-0.0423	
926.80000	-0.0421	
927.00000	-0.0420	
927.20000	-0.0418	
927.40000	-0.0415	
927.60000	-0.0415	
927.80000	-0.0410	
928.00000	-0.0407	
928.20000	-0.0407	
928.40000	-0.0404	
928.60000	-0.0404	
928.80000	-0.0403	
929.00000	-0.0401	
929.20000	-0.0403	
929.40000	-0.0401	
929.60000	-0.0397	
929.80000	-0.0397	
930.00000	-0.0397	
930.20000	-0.0394	
930.40000	-0.0391	
930.60000	-0.0395	
930.80000	-0.0389	
931.00000	-0.0388	
931.20000	-0.0391	
931.40000	-0.0389	
931.60000	-0.0386	
931.80000	-0.0388	
932.00000	-0.0388	
932.20000	-0.0388	
932.40000	-0.0388	
932.60000	-0.0386	
932.80000	-0.0386	
933.00000	-0.0383	
933.20000	-0.0386	
933.40000	-0.0386	
933.60000	-0.0385	
933.80000	-0.0386	
934.00000	-0.0386	
934.20000	-0.0388	
934.40000	-0.0388	
934.60000	-0.0388	
934.80000	-0.0388	
935.00000	-0.0391	
935.20000	-0.0394	
935.40000	-0.0394	
935.60000	-0.0395	
935.80000	-0.0398	
936.00000	-0.0400	
936.20000	-0.0400	
936.40000	-0.0400	
936.60000	-0.0400	
936.80000	-0.0400	
937.00000	-0.0403	
937.20000	-0.0407	
937.40000	-0.0404	
937.60000	-0.0406	
937.80000	-0.0407	
938.00000	-0.0409	
938.20000	-0.0415	
938.40000	-0.0417	
938.60000	-0.0415	
938.80000	-0.0417	
939.00000	-0.0417	
939.20000	-0.0417	
939.40000	-0.0412	
939.60000	-0.0412	
939.80000	-0.0417	
940.00000	-0.0420	
940.20000	-0.0412	
940.40000	-0.0418	
940.60000	-0.0420	
940.80000	-0.0420	
941.00000	-0.0421	
941.20000	-0.0415	
941.40000	-0.0418	
941.60000	-0.0417	
941.80000	-0.0421	
942.00000	-0.0418	
942.20000	-0.0417	
942.40000	-0.0417	
942.60000	-0.0417	
942.80000	-0.0418	
943.00000	-0.0420	
943.20000	-0.0417	
943.40000	-0.0410	
943.60000	-0.0412	
943.80000	-0.0410	
944.00000	-0.0409	
944.20000	-0.0406	
944.40000	-0.0407	
944.60000	-0.0401	
944.80000	-0.0400	
945.00000	-0.0397	
945.20000	-0.0395	
945.40000	-0.0395	
945.60000	-0.0397	
945.80000	-0.0395	
946.00000	-0.0391	
946.20000	-0.0389	
946.40000	-0.0389	
946.60000	-0.0388	
946.80000	-0.0385	
947.00000	-0.0383	
947.20000	-0.0378	
947.40000	-0.0375	
947.60000	-0.0375	
947.80000	-0.0374	
948.00000	-0.0369	
948.20000	-0.0368	
948.40000	-0.0366	
948.60000	-0.0365	
948.80000	-0.0365	
949.00000	-0.0365	
949.20000	-0.0366	
949.40000	-0.0365	
949.60000	-0.0369	
949.80000	-0.0368	
950.00000	-0.0368	
950.20000	-0.0368	
950.40000	-0.0372	
950.60000	-0.0369	
950.80000	-0.0374	
951.00000	-0.0375	
951.20000	-0.0375	
951.40000	-0.0378	
951.60000	-0.0380	
951.80000	-0.0381	
952.00000	-0.0385	
952.20000	-0.0386	
952.40000	-0.0388	
952.60000	-0.0389	
952.80000	-0.0397	
953.00000	-0.0398	
953.20000	-0.0398	
953.40000	-0.0397	
953.60000	-0.0401	
953.80000	-0.0403	
954.00000	-0.0403	
954.20000	-0.0404	
954.40000	-0.0406	
954.60000	-0.0409	
954.80000	-0.0410	
955.00000	-0.0412	
955.20000	-0.0412	
955.40000	-0.0415	
955.60000	-0.0418	
955.80000	-0.0417	
956.00000	-0.0415	
956.20000	-0.0412	
956.40000	-0.0415	
956.60000	-0.0415	
956.80000	-0.0417	
957.00000	-0.0415	
957.20000	-0.0415	
957.40000	-0.0418	
957.60000	-0.0418	
957.80000	-0.0412	
958.00000	-0.0412	
958.20000	-0.0410	
958.40000	-0.0409	
958.60000	-0.0410	
958.80000	-0.0410	
959.00000	-0.0409	
959.20000	-0.0412	
959.40000	-0.0412	
959.60000	-0.0409	
959.80000	-0.0407	
960.00000	-0.0404	
960.20000	-0.0404	
960.40000	-0.0400	
960.60000	-0.0401	
960.80000	-0.0398	
961.00000	-0.0394	
961.20000	-0.0394	
961.40000	-0.0389	
961.60000	-0.0388	
961.80000	-0.0388	
962.00000	-0.0389	
962.20000	-0.0391	
962.40000	-0.0388	
962.60000	-0.0389	
962.80000	-0.0391	
963.00000	-0.0389	
963.20000	-0.0386	
963.40000	-0.0386	
963.60000	-0.0385	
963.80000	-0.0381	
964.00000	-0.0381	
964.20000	-0.0378	
964.40000	-0.0380	
964.60000	-0.0377	
964.80000	-0.0375	
965.00000	-0.0374	
965.20000	-0.0374	
965.40000	-0.0374	
965.60000	-0.0375	
965.80000	-0.0377	
966.00000	-0.0375	
966.20000	-0.0375	
966.40000	-0.0372	
966.60000	-0.0374	
966.80000	-0.0377	
967.00000	-0.0377	
967.20000	-0.0378	
967.40000	-0.0378	
967.60000	-0.0378	
967.80000	-0.0383	
968.00000	-0.0385	
968.20000	-0.0386	
968.40000	-0.0388	
968.60000	-0.0388	
968.80000	-0.0391	
969.00000	-0.0395	
969.20000	-0.0394	
969.40000	-0.0400	
969.60000	-0.0401	
969.80000	-0.0401	
970.00000	-0.0401	
970.20000	-0.0404	
970.40000	-0.0404	
970.60000	-0.0407	
970.80000	-0.0406	
971.00000	-0.0403	
971.20000	-0.0406	
971.40000	-0.0407	
971.60000	-0.0407	
971.80000	-0.0410	
972.00000	-0.0412	
972.20000	-0.0415	
972.40000	-0.0412	
972.60000	-0.0412	
972.80000	-0.0417	
973.00000	-0.0412	
973.20000	-0.0415	
973.40000	-0.0417	
973.60000	-0.0412	
973.80000	-0.0417	
974.00000	-0.0418	
974.20000	-0.0420	
974.40000	-0.0418	
974.60000	-0.0417	
974.80000	-0.0415	
975.00000	-0.0418	
975.20000	-0.0417	
975.40000	-0.0420	
975.60000	-0.0417	
975.80000	-0.0420	
976.00000	-0.0421	
976.20000	-0.0417	
976.40000	-0.0417	
976.60000	-0.0417	
976.80000	-0.0417	
977.00000	-0.0412	
977.20000	-0.0415	
977.40000	-0.0409	
977.60000	-0.0404	
977.80000	-0.0401	
978.00000	-0.0404	
978.20000	-0.0400	
978.40000	-0.0400	
978.60000	-0.0398	
978.80000	-0.0395	
979.00000	-0.0394	
979.20000	-0.0398	
979.40000	-0.0398	
979.60000	-0.0394	
979.80000	-0.0395	
980.00000	-0.0388	
980.20000	-0.0388	
980.40000	-0.0388	
980.60000	-0.0386	
980.80000	-0.0383	
981.00000	-0.0381	
981.20000	-0.0381	
981.40000	-0.0380	
981.60000	-0.0380	
981.80000	-0.0378	
982.00000	-0.0381	
982.20000	-0.0380	
982.40000	-0.0378	
982.60000	-0.0380	
982.80000	-0.0375	
983.00000	-0.0378	
983.20000	-0.0378	
983.40000	-0.0378	
983.60000	-0.0380	
983.80000	-0.0380	
984.00000	-0.0380	
984.20000	-0.0381	
984.40000	-0.0385	
984.60000	-0.0385	
984.80000	-0.0385	
985.00000	-0.0388	
985.20000	-0.0391	
985.40000	-0.0391	
985.60000	-0.0397	
985.80000	-0.0400	
986.00000	-0.0404	
986.20000	-0.0404	
986.40000	-0.0406	
986.60000	-0.0407	
986.80000	-0.0409	
987.00000	-0.0415	
987.20000	-0.0420	
987.40000	-0.0415	
987.60000	-0.0412	
987.80000	-0.0412	
988.00000	-0.0417	
988.20000	-0.0420	
988.40000	-0.0423	
988.60000	-0.0423	
988.80000	-0.0424	
989.00000	-0.0424	
989.20000	-0.0421	
989.40000	-0.0423	
989.60000	-0.0421	
989.80000	-0.0424	
990.00000	-0.0424	
990.20000	-0.0423	
990.40000	-0.0423	
990.60000	-0.0426	
990.80000	-0.0426	
991.00000	-0.0427	
991.20000	-0.0427	
991.40000	-0.0429	
991.60000	-0.0429	
991.80000	-0.0427	
992.00000	-0.0427	
992.20000	-0.0427	
992.40000	-0.0429	
992.60000	-0.0427	
992.80000	-0.0427	
993.00000	-0.0429	
993.20000	-0.0427	
993.40000	-0.0429	
993.60000	-0.0429	
993.80000	-0.0427	
994.00000	-0.0424	
994.20000	-0.0424	
994.40000	-0.0423	
994.60000	-0.0420	
994.80000	-0.0415	
995.00000	-0.0412	
995.20000	-0.0409	
995.40000	-0.0407	
995.60000	-0.0406	
995.80000	-0.0404	
996.00000	-0.0406	
996.20000	-0.0404	
996.40000	-0.0401	
996.60000	-0.0398	
996.80000	-0.0395	
997.00000	-0.0397	
997.20000	-0.0391	
997.40000	-0.0389	
997.60000	-0.0389	
997.80000	-0.0388	
998.00000	-0.0386	
998.20000	-0.0385	
998.40000	-0.0385	
998.60000	-0.0385	
998.80000	-0.0383	
999.00000	-0.0383	
999.20000	-0.0380	
999.40000	-0.0383	
999.60000	-0.0381	
999.80000	-0.0381	
1000.00000	-0.0380	
1000.20000	-0.0380	
1000.40000	-0.0380	
1000.60000	-0.0383	
1000.80000	-0.0383	
1001.00000	-0.0383	
1001.20000	-0.0381	
1001.40000	-0.0381	
1001.60000	-0.0385	
1001.80000	-0.0388	
1002.00000	-0.0389	
1002.20000	-0.0389	
1002.40000	-0.0394	
1002.60000	-0.0395	
1002.80000	-0.0398	
1003.00000	-0.0401	
1003.20000	-0.0401	
1003.40000	-0.0401	
1003.60000	-0.0404	
1003.80000	-0.0407	
1004.00000	-0.0404	
1004.20000	-0.0406	
1004.40000	-0.0407	
1004.60000	-0.0407	
1004.80000	-0.0410	
1005.00000	-0.0412	
1005.20000	-0.0418	
1005.40000	-0.0421	
1005.60000	-0.0423	
1005.80000	-0.0420	
1006.00000	-0.0424	
1006.20000	-0.0426	
1006.40000	-0.0427	
1006.60000	-0.0427	
1006.80000	-0.0427	
1007.00000	-0.0427	
1007.20000	-0.0430	
1007.40000	-0.0430	
1007.60000	-0.0430	
1007.80000	-0.0429	
1008.00000	-0.0430	
1008.20000	-0.0432	
1008.40000	-0.0430	
1008.60000	-0.0429	
1008.80000	-0.0429	
1009.00000	-0.0432	
1009.20000	-0.0430	
1009.40000	-0.0427	
1009.60000	-0.0430	
1009.80000	-0.0427	
1010.00000	-0.0424	
1010.20000	-0.0423	
1010.40000	-0.0421	
1010.60000	-0.0420	
1010.80000	-0.0420	
1011.00000	-0.0418	
1011.20000	-0.0412	
1011.40000	-0.0410	
1011.60000	-0.0407	
1011.80000	-0.0406	
1012.00000	-0.0406	
1012.20000	-0.0407	
1012.40000	-0.0403	
1012.60000	-0.0404	
1012.80000	-0.0407	
1013.00000	-0.0403	
1013.20000	-0.0401	
1013.40000	-0.0404	
1013.60000	-0.0401	
1013.80000	-0.0401	
1014.00000	-0.0401	
1014.20000	-0.0398	
1014.40000	-0.0401	
1014.60000	-0.0400	
1014.80000	-0.0395	
1015.00000	-0.0397	
1015.20000	-0.0397	
1015.40000	-0.0401	
1015.60000	-0.0398	
1015.80000	-0.0398	
1016.00000	-0.0398	
1016.20000	-0.0398	
1016.40000	-0.0398	
1016.60000	-0.0398	
1016.80000	-0.0397	
1017.00000	-0.0397	
1017.20000	-0.0395	
1017.40000	-0.0397	
1017.60000	-0.0395	
1017.80000	-0.0395	
1018.00000	-0.0395	
1018.20000	-0.0398	
1018.40000	-0.0398	
1018.60000	-0.0397	
1018.80000	-0.0398	
1019.00000	-0.0397	
1019.20000	-0.0397	
1019.40000	-0.0401	
1019.60000	-0.0400	
1019.80000	-0.0403	
1020.00000	-0.0400	
1020.20000	-0.0400	
1020.40000	-0.0401	
1020.60000	-0.0404	
1020.80000	-0.0404	
1021.00000	-0.0401	
1021.20000	-0.0401	
1021.40000	-0.0403	
1021.60000	-0.0401	
1021.80000	-0.0403	
1022.00000	-0.0401	
1022.20000	-0.0400	
1022.40000	-0.0397	
1022.60000	-0.0389	
1022.80000	-0.0385	
1023.00000	-0.0380	
1023.20000	-0.0375	
1023.40000	-0.0368	
1023.60000	-0.0362	
1023.80000	-0.0356	
1024.00000	-0.0352	
1024.20000	-0.0343	
1024.40000	-0.0334	
1024.60000	-0.0325	
1024.80000	-0.0319	
1025.00000	-0.0310	
1025.20000	-0.0302	
1025.40000	-0.0298	
1025.60000	-0.0290	
1025.80000	-0.0285	
1026.00000	-0.0281	
1026.20000	-0.0276	
1026.40000	-0.0270	
1026.60000	-0.0261	
1026.80000	-0.0255	
1027.00000	-0.0250	
1027.20000	-0.0243	
1027.40000	-0.0230	
1027.60000	-0.0218	
1027.80000	-0.0209	
1028.00000	-0.0198	
1028.20000	-0.0189	
1028.40000	-0.0177	
1028.60000	-0.0168	
1028.80000	-0.0156	
1029.00000	-0.0148	
1029.20000	-0.0134	
1029.40000	-0.0125	
1029.60000	-0.0107	
1029.80000	-0.0093	
1030.00000	-0.0079	
1030.20000	-0.0061	
1030.40000	-0.0040	
1030.60000	-0.0015	
1030.80000	 0.0005	
1031.00000	 0.0027	
1031.20000	 0.0053	
1031.40000	 0.0084	
1031.60000	 0.0110	
1031.80000	 0.0140	
1032.00000	 0.0174	
1032.20000	 0.0215	
1032.40000	 0.0267	
1032.60000	 0.0320	
1032.80000	 0.0383	
1033.00000	 0.0453	
1033.20000	 0.0536	
1033.40000	 0.0620	
1033.60000	 0.0717	
1033.80000	 0.0816	
1034.00000	 0.0922	
1034.20000	 0.1028	
1034.40000	 0.1140	
1034.60000	 0.1251	
1034.80000	 0.1360	
1035.00000	 0.1465	
1035.20000	 0.1570	
1035.40000	 0.1660	
1035.60000	 0.1753	
1035.80000	 0.1834	
1036.00000	 0.1909	
1036.20000	 0.1976	
1036.40000	 0.2036	
1036.60000	 0.2084	
1036.80000	 0.2122	
1037.00000	 0.2148	
1037.20000	 0.2167	
1037.40000	 0.2177	
1037.60000	 0.2176	
1037.80000	 0.2164	
1038.00000	 0.2142	
1038.20000	 0.2112	
1038.40000	 0.2074	
1038.60000	 0.2028	
1038.80000	 0.1979	
1039.00000	 0.1929	
1039.20000	 0.1877	
1039.40000	 0.1820	
1039.60000	 0.1756	
1039.80000	 0.1692	
1040.00000	 0.1625	
1040.20000	 0.1562	
1040.40000	 0.1500	
1040.60000	 0.1431	
1040.80000	 0.1367	
1041.00000	 0.1305	
1041.20000	 0.1250	
1041.40000	 0.1192	
1041.60000	 0.1140	
1041.80000	 0.1093	
1042.00000	 0.1044	
1042.20000	 0.0996	
1042.40000	 0.0954	
1042.60000	 0.0916	
1042.80000	 0.0882	
1043.00000	 0.0844	
1043.20000	 0.0812	
1043.40000	 0.0787	
1043.60000	 0.0763	
1043.80000	 0.0740	
1044.00000	 0.0722	
1044.20000	 0.0710	
1044.40000	 0.0696	
1044.60000	 0.0690	
1044.80000	 0.0682	
1045.00000	 0.0684	
1045.20000	 0.0685	
1045.40000	 0.0690	
1045.60000	 0.0697	
1045.80000	 0.0703	
1046.00000	 0.0713	
1046.20000	 0.0728	
1046.40000	 0.0740	
1046.60000	 0.0757	
1046.80000	 0.0771	
1047.00000	 0.0789	
1047.20000	 0.0807	
1047.40000	 0.0826	
1047.60000	 0.0844	
1047.80000	 0.0856	
1048.00000	 0.0873	
1048.20000	 0.0888	
1048.40000	 0.0905	
1048.60000	 0.0916	
1048.80000	 0.0929	
1049.00000	 0.0937	
1049.20000	 0.0948	
1049.40000	 0.0955	
1049.60000	 0.0958	
1049.80000	 0.0966	
1050.00000	 0.0969	
1050.20000	 0.0972	
1050.40000	 0.0977	
1050.60000	 0.0980	
1050.80000	 0.0983	
1051.00000	 0.0987	
1051.20000	 0.0993	
1051.40000	 0.0996	
1051.60000	 0.1001	
1051.80000	 0.1004	
1052.00000	 0.1009	
1052.20000	 0.1007	
1052.40000	 0.1013	
1052.60000	 0.1015	
1052.80000	 0.1013	
1053.00000	 0.1015	
1053.20000	 0.1013	
1053.40000	 0.1009	
1053.60000	 0.1003	
1053.80000	 0.0992	
1054.00000	 0.0986	
1054.20000	 0.0974	
1054.40000	 0.0960	
1054.60000	 0.0946	
1054.80000	 0.0925	
1055.00000	 0.0903	
1055.20000	 0.0871	
1055.40000	 0.0842	
1055.60000	 0.0807	
1055.80000	 0.0766	
1056.00000	 0.0722	
1056.20000	 0.0674	
1056.40000	 0.0626	
1056.60000	 0.0568	
1056.80000	 0.0510	
1057.00000	 0.0449	
1057.20000	 0.0385	
1057.40000	 0.0317	
1057.60000	 0.0256	
1057.80000	 0.0189	
1058.00000	 0.0127	
1058.20000	 0.0066	
1058.40000	 0.0002	
1058.60000	-0.0058	
1058.80000	-0.0116	
1059.00000	-0.0172	
1059.20000	-0.0227	
1059.40000	-0.0276	
1059.60000	-0.0325	
1059.80000	-0.0369	
1060.00000	-0.0412	
1060.20000	-0.0453	
1060.40000	-0.0493	
1060.60000	-0.0531	
1060.80000	-0.0568	
1061.00000	-0.0601	
1061.20000	-0.0633	
1061.40000	-0.0664	
1061.60000	-0.0694	
1061.80000	-0.0722	
1062.00000	-0.0752	
1062.20000	-0.0777	
1062.40000	-0.0803	
1062.60000	-0.0822	
1062.80000	-0.0841	
1063.00000	-0.0854	
1063.20000	-0.0867	
1063.40000	-0.0876	
1063.60000	-0.0882	
1063.80000	-0.0885	
1064.00000	-0.0887	
1064.20000	-0.0888	
1064.40000	-0.0885	
1064.60000	-0.0882	
1064.80000	-0.0874	
1065.00000	-0.0871	
1065.20000	-0.0870	
1065.40000	-0.0867	
1065.60000	-0.0864	
1065.80000	-0.0862	
1066.00000	-0.0856	
1066.20000	-0.0858	
1066.40000	-0.0861	
1066.60000	-0.0858	
1066.80000	-0.0856	
1067.00000	-0.0858	
1067.20000	-0.0862	
1067.40000	-0.0865	
1067.60000	-0.0868	
1067.80000	-0.0873	
1068.00000	-0.0877	
1068.20000	-0.0887	
1068.40000	-0.0893	
1068.60000	-0.0908	
1068.80000	-0.0916	
1069.00000	-0.0925	
1069.20000	-0.0938	
1069.40000	-0.0954	
1069.60000	-0.0964	
1069.80000	-0.0978	
1070.00000	-0.0990	
1070.20000	-0.1001	
1070.40000	-0.1016	
1070.60000	-0.1031	
1070.80000	-0.1039	
1071.00000	-0.1048	
1071.20000	-0.1062	
1071.40000	-0.1079	
1071.60000	-0.1085	
1071.80000	-0.1100	
1072.00000	-0.1109	
1072.20000	-0.1120	
1072.40000	-0.1126	
1072.60000	-0.1132	
1072.80000	-0.1138	
1073.00000	-0.1138	
1073.20000	-0.1146	
1073.40000	-0.1149	
1073.60000	-0.1151	
1073.80000	-0.1154	
1074.00000	-0.1155	
1074.20000	-0.1158	
1074.40000	-0.1161	
1074.60000	-0.1160	
1074.80000	-0.1163	
1075.00000	-0.1163	
1075.20000	-0.1163	
1075.40000	-0.1167	
1075.60000	-0.1167	
1075.80000	-0.1172	
1076.00000	-0.1173	
1076.20000	-0.1172	
1076.40000	-0.1180	
1076.60000	-0.1176	
1076.80000	-0.1180	
1077.00000	-0.1181	
1077.20000	-0.1181	
1077.40000	-0.1184	
1077.60000	-0.1186	
1077.80000	-0.1186	
1078.00000	-0.1186	
1078.20000	-0.1184	
1078.40000	-0.1186	
1078.60000	-0.1186	
1078.80000	-0.1187	
1079.00000	-0.1187	
1079.20000	-0.1186	
1079.40000	-0.1186	
1079.60000	-0.1183	
1079.80000	-0.1184	
1080.00000	-0.1181	
1080.20000	-0.1181	
1080.40000	-0.1175	
1080.60000	-0.1176	
1080.80000	-0.1175	
1081.00000	-0.1180	
1081.20000	-0.1175	
1081.40000	-0.1176	
1081.60000	-0.1184	
1081.80000	-0.1184	
1082.00000	-0.1187	
1082.20000	-0.1192	
1082.40000	-0.1195	
1082.60000	-0.1196	
1082.80000	-0.1201	
1083.00000	-0.1205	
1083.20000	-0.1208	
1083.40000	-0.1210	
1083.60000	-0.1215	
1083.80000	-0.1218	
1084.00000	-0.1218	
1084.20000	-0.1222	
1084.40000	-0.1224	
1084.60000	-0.1225	
1084.80000	-0.1230	
1085.00000	-0.1231	
1085.20000	-0.1234	
1085.40000	-0.1234	
1085.60000	-0.1233	
1085.80000	-0.1234	
1086.00000	-0.1236	
1086.20000	-0.1233	
1086.40000	-0.1233	
1086.60000	-0.1228	
1086.80000	-0.1224	
1087.00000	-0.1222	
1087.20000	-0.1222	
1087.40000	-0.1213	
1087.60000	-0.1208	
1087.80000	-0.1204	
1088.00000	-0.1202	
1088.20000	-0.1199	
1088.40000	-0.1196	
1088.60000	-0.1195	
1088.80000	-0.1189	
1089.00000	-0.1184	
1089.20000	-0.1180	
1089.40000	-0.1175	
1089.60000	-0.1172	
1089.80000	-0.1169	
1090.00000	-0.1164	
1090.20000	-0.1161	
1090.40000	-0.1160	
1090.60000	-0.1161	
1090.80000	-0.1158	
1091.00000	-0.1155	
1091.20000	-0.1149	
1091.40000	-0.1147	
1091.60000	-0.1144	
1091.80000	-0.1140	
1092.00000	-0.1138	
1092.20000	-0.1134	
1092.40000	-0.1134	
1092.60000	-0.1132	
1092.80000	-0.1131	
1093.00000	-0.1128	
1093.20000	-0.1123	
1093.40000	-0.1122	
1093.60000	-0.1118	
1093.80000	-0.1120	
1094.00000	-0.1112	
1094.20000	-0.1108	
1094.40000	-0.1106	
1094.60000	-0.1103	
1094.80000	-0.1103	
1095.00000	-0.1106	
1095.20000	-0.1103	
1095.40000	-0.1105	
1095.60000	-0.1108	
1095.80000	-0.1105	
1096.00000	-0.1106	
1096.20000	-0.1106	
1096.40000	-0.1105	
1096.60000	-0.1102	
1096.80000	-0.1105	
1097.00000	-0.1100	
1097.20000	-0.1097	
1097.40000	-0.1096	
1097.60000	-0.1091	
1097.80000	-0.1089	
1098.00000	-0.1089	
1098.20000	-0.1085	
1098.40000	-0.1085	
1098.60000	-0.1086	
1098.80000	-0.1086	
1099.00000	-0.1088	
1099.20000	-0.1088	
1099.40000	-0.1091	
1099.60000	-0.1089	
1099.80000	-0.1091	
1100.00000	-0.1091	
1100.20000	-0.1097	
1100.40000	-0.1099	
1100.60000	-0.1099	
1100.80000	-0.1100	
1101.00000	-0.1106	
1101.20000	-0.1105	
1101.40000	-0.1109	
1101.60000	-0.1112	
1101.80000	-0.1112	
1102.00000	-0.1118	
1102.20000	-0.1122	
1102.40000	-0.1125	
1102.60000	-0.1128	
1102.80000	-0.1132	
1103.00000	-0.1134	
1103.20000	-0.1137	
1103.40000	-0.1141	
1103.60000	-0.1143	
1103.80000	-0.1149	
1104.00000	-0.1151	
1104.20000	-0.1154	
1104.40000	-0.1154	
1104.60000	-0.1158	
1104.80000	-0.1164	
1105.00000	-0.1166	
1105.20000	-0.1170	
1105.40000	-0.1172	
1105.60000	-0.1173	
1105.80000	-0.1170	
1106.00000	-0.1172	
1106.20000	-0.1170	
1106.40000	-0.1170	
1106.60000	-0.1169	
1106.80000	-0.1167	
1107.00000	-0.1164	
1107.20000	-0.1166	
1107.40000	-0.1163	
1107.60000	-0.1158	
1107.80000	-0.1154	
1108.00000	-0.1151	
1108.20000	-0.1146	
1108.40000	-0.1143	
1108.60000	-0.1140	
1108.80000	-0.1138	
1109.00000	-0.1129	
1109.20000	-0.1129	
1109.40000	-0.1128	
1109.60000	-0.1125	
1109.80000	-0.1118	
1110.00000	-0.1118	
1110.20000	-0.1115	
1110.40000	-0.1109	
1110.60000	-0.1106	
1110.80000	-0.1100	
1111.00000	-0.1097	
1111.20000	-0.1096	
1111.40000	-0.1096	
1111.60000	-0.1088	
1111.80000	-0.1088	
1112.00000	-0.1088	
1112.20000	-0.1085	
1112.40000	-0.1085	
1112.60000	-0.1085	
1112.80000	-0.1082	
1113.00000	-0.1080	
1113.20000	-0.1080	
1113.40000	-0.1074	
1113.60000	-0.1073	
1113.80000	-0.1067	
1114.00000	-0.1062	
1114.20000	-0.1064	
1114.40000	-0.1057	
1114.60000	-0.1056	
1114.80000	-0.1053	
1115.00000	-0.1048	
1115.20000	-0.1051	
1115.40000	-0.1045	
1115.60000	-0.1044	
1115.80000	-0.1039	
1116.00000	-0.1036	
1116.20000	-0.1031	
1116.40000	-0.1031	
1116.60000	-0.1025	
1116.80000	-0.1024	
1117.00000	-0.1021	
1117.20000	-0.1019	
1117.40000	-0.1019	
1117.60000	-0.1016	
1117.80000	-0.1015	
1118.00000	-0.1012	
1118.20000	-0.1010	
1118.40000	-0.1004	
1118.60000	-0.1004	
1118.80000	-0.1001	
1119.00000	-0.1001	
1119.20000	-0.1001	
1119.40000	-0.0999	
1119.60000	-0.0998	
1119.80000	-0.0995	
1120.00000	-0.0993	
1120.20000	-0.0993	
1120.40000	-0.0992	
1120.60000	-0.0990	
1120.80000	-0.0983	
1121.00000	-0.0980	
1121.20000	-0.0978	
1121.40000	-0.0977	
1121.60000	-0.0974	
1121.80000	-0.0974	
1122.00000	-0.0972	
1122.20000	-0.0969	
1122.40000	-0.0961	
1122.60000	-0.0958	
1122.80000	-0.0957	
1123.00000	-0.0949	
1123.20000	-0.0951	
1123.40000	-0.0940	
1123.60000	-0.0937	
1123.80000	-0.0934	
1124.00000	-0.0931	
1124.20000	-0.0928	
1124.40000	-0.0919	
1124.60000	-0.0914	
1124.80000	-0.0908	
1125.00000	-0.0906	
1125.20000	-0.0897	
1125.40000	-0.0896	
1125.60000	-0.0891	
1125.80000	-0.0883	
1126.00000	-0.0882	
1126.20000	-0.0874	
1126.40000	-0.0870	
1126.60000	-0.0864	
1126.80000	-0.0856	
1127.00000	-0.0853	
1127.20000	-0.0847	
1127.40000	-0.0842	
1127.60000	-0.0833	
1127.80000	-0.0830	
1128.00000	-0.0829	
1128.20000	-0.0822	
1128.40000	-0.0815	
1128.60000	-0.0812	
1128.80000	-0.0810	
1129.00000	-0.0804	
1129.20000	-0.0803	
1129.40000	-0.0798	
1129.60000	-0.0790	
1129.80000	-0.0787	
1130.00000	-0.0780	
1130.20000	-0.0777	
1130.40000	-0.0771	
1130.60000	-0.0766	
1130.80000	-0.0763	
1131.00000	-0.0758	
1131.20000	-0.0755	
1131.40000	-0.0749	
1131.60000	-0.0748	
1131.80000	-0.0743	
1132.00000	-0.0739	
1132.20000	-0.0734	
1132.40000	-0.0734	
1132.60000	-0.0726	
1132.80000	-0.0723	
1133.00000	-0.0722	
1133.20000	-0.0717	
1133.40000	-0.0713	
1133.60000	-0.0710	
1133.80000	-0.0705	
1134.00000	-0.0702	
1134.20000	-0.0700	
1134.40000	-0.0694	
1134.60000	-0.0688	
1134.80000	-0.0684	
1135.00000	-0.0682	
1135.20000	-0.0682	
1135.40000	-0.0676	
1135.60000	-0.0674	
1135.80000	-0.0673	
1136.00000	-0.0667	
1136.20000	-0.0662	
1136.40000	-0.0661	
1136.60000	-0.0656	
1136.80000	-0.0655	
1137.00000	-0.0653	
1137.20000	-0.0655	
1137.40000	-0.0645	
1137.60000	-0.0642	
1137.80000	-0.0641	
1138.00000	-0.0642	
1138.20000	-0.0642	
1138.40000	-0.0638	
1138.60000	-0.0639	
1138.80000	-0.0635	
1139.00000	-0.0630	
1139.20000	-0.0627	
1139.40000	-0.0621	
1139.60000	-0.0616	
1139.80000	-0.0615	
1140.00000	-0.0615	
1140.20000	-0.0603	
1140.40000	-0.0600	
1140.60000	-0.0595	
1140.80000	-0.0592	
1141.00000	-0.0591	
1141.20000	-0.0586	
1141.40000	-0.0580	
1141.60000	-0.0577	
1141.80000	-0.0571	
1142.00000	-0.0566	
1142.20000	-0.0560	
1142.40000	-0.0554	
1142.60000	-0.0549	
1142.80000	-0.0545	
1143.00000	-0.0543	
1143.20000	-0.0536	
1143.40000	-0.0533	
1143.60000	-0.0526	
1143.80000	-0.0523	
1144.00000	-0.0514	
1144.20000	-0.0510	
1144.40000	-0.0502	
1144.60000	-0.0497	
1144.80000	-0.0494	
1145.00000	-0.0490	
1145.20000	-0.0487	
1145.40000	-0.0482	
1145.60000	-0.0479	
1145.80000	-0.0475	
1146.00000	-0.0468	
1146.20000	-0.0467	
1146.40000	-0.0464	
1146.60000	-0.0455	
1146.80000	-0.0452	
1147.00000	-0.0446	
1147.20000	-0.0439	
1147.40000	-0.0438	
1147.60000	-0.0433	
1147.80000	-0.0427	
1148.00000	-0.0423	
1148.20000	-0.0418	
1148.40000	-0.0415	
1148.60000	-0.0410	
1148.80000	-0.0407	
1149.00000	-0.0404	
1149.20000	-0.0401	
1149.40000	-0.0400	
1149.60000	-0.0395	
1149.80000	-0.0391	
1150.00000	-0.0394	
1150.20000	-0.0388	
1150.40000	-0.0385	
1150.60000	-0.0385	
1150.80000	-0.0381	
1151.00000	-0.0381	
1151.20000	-0.0378	
1151.40000	-0.0378	
1151.60000	-0.0378	
1151.80000	-0.0380	
1152.00000	-0.0377	
1152.20000	-0.0375	
1152.40000	-0.0375	
1152.60000	-0.0375	
1152.80000	-0.0375	
1153.00000	-0.0374	
1153.20000	-0.0372	
1153.40000	-0.0369	
1153.60000	-0.0368	
1153.80000	-0.0372	
1154.00000	-0.0368	
1154.20000	-0.0365	
1154.40000	-0.0363	
1154.60000	-0.0365	
1154.80000	-0.0363	
1155.00000	-0.0365	
1155.20000	-0.0365	
1155.40000	-0.0365	
1155.60000	-0.0362	
1155.80000	-0.0360	
1156.00000	-0.0356	
1156.20000	-0.0352	
1156.40000	-0.0352	
1156.60000	-0.0346	
1156.80000	-0.0340	
1157.00000	-0.0340	
1157.20000	-0.0336	
1157.40000	-0.0334	
1157.60000	-0.0333	
1157.80000	-0.0327	
1158.00000	-0.0327	
1158.20000	-0.0320	
1158.40000	-0.0317	
1158.60000	-0.0319	
1158.80000	-0.0317	
1159.00000	-0.0316	
1159.20000	-0.0314	
1159.40000	-0.0314	
1159.60000	-0.0313	
1159.80000	-0.0313	
1160.00000	-0.0316	
1160.20000	-0.0317	
1160.40000	-0.0314	
1160.60000	-0.0313	
1160.80000	-0.0310	
1161.00000	-0.0310	
1161.20000	-0.0310	
1161.40000	-0.0307	
1161.60000	-0.0310	
1161.80000	-0.0305	
1162.00000	-0.0307	
1162.20000	-0.0305	
1162.40000	-0.0305	
1162.60000	-0.0310	
1162.80000	-0.0307	
1163.00000	-0.0305	
1163.20000	-0.0307	
1163.40000	-0.0305	
1163.60000	-0.0302	
1163.80000	-0.0301	
1164.00000	-0.0301	
1164.20000	-0.0302	
1164.40000	-0.0301	
1164.60000	-0.0301	
1164.80000	-0.0299	
1165.00000	-0.0298	
1165.20000	-0.0299	
1165.40000	-0.0301	
1165.60000	-0.0299	
1165.80000	-0.0299	
1166.00000	-0.0298	
1166.20000	-0.0296	
1166.40000	-0.0299	
1166.60000	-0.0301	
1166.80000	-0.0298	
1167.00000	-0.0301	
1167.20000	-0.0302	
1167.40000	-0.0304	
1167.60000	-0.0302	
1167.80000	-0.0302	
1168.00000	-0.0302	
1168.20000	-0.0304	
1168.40000	-0.0304	
1168.60000	-0.0307	
1168.80000	-0.0310	
1169.00000	-0.0311	
1169.20000	-0.0314	
1169.40000	-0.0319	
1169.60000	-0.0320	
1169.80000	-0.0319	
1170.00000	-0.0319	
1170.20000	-0.0323	
1170.40000	-0.0323	
1170.60000	-0.0323	
1170.80000	-0.0320	
1171.00000	-0.0320	
1171.20000	-0.0320	
1171.40000	-0.0320	
1171.60000	-0.0319	
1171.80000	-0.0317	
1172.00000	-0.0319	
1172.20000	-0.0314	
1172.40000	-0.0310	
1172.60000	-0.0307	
1172.80000	-0.0305	
1173.00000	-0.0304	
1173.20000	-0.0305	
1173.40000	-0.0301	
1173.60000	-0.0301	
1173.80000	-0.0299	
1174.00000	-0.0298	
1174.20000	-0.0296	
1174.40000	-0.0296	
1174.60000	-0.0299	
1174.80000	-0.0294	
1175.00000	-0.0298	
1175.20000	-0.0299	
1175.40000	-0.0301	
1175.60000	-0.0302	
1175.80000	-0.0302	
1176.00000	-0.0302	
1176.20000	-0.0304	
1176.40000	-0.0304	
1176.60000	-0.0305	
1176.80000	-0.0307	
1177.00000	-0.0307	
1177.20000	-0.0305	
1177.40000	-0.0307	
1177.60000	-0.0310	
1177.80000	-0.0313	
1178.00000	-0.0317	
1178.20000	-0.0314	
1178.40000	-0.0314	
1178.60000	-0.0317	
1178.80000	-0.0316	
1179.00000	-0.0317	
1179.20000	-0.0320	
1179.40000	-0.0319	
1179.60000	-0.0319	
1179.80000	-0.0317	
1180.00000	-0.0319	
1180.20000	-0.0317	
1180.40000	-0.0316	
1180.60000	-0.0314	
1180.80000	-0.0313	
1181.00000	-0.0314	
1181.20000	-0.0307	
1181.40000	-0.0304	
1181.60000	-0.0299	
1181.80000	-0.0293	
1182.00000	-0.0285	
1182.20000	-0.0279	
1182.40000	-0.0275	
1182.60000	-0.0267	
1182.80000	-0.0258	
1183.00000	-0.0256	
1183.20000	-0.0250	
1183.40000	-0.0243	
1183.60000	-0.0235	
1183.80000	-0.0230	
1184.00000	-0.0224	
1184.20000	-0.0221	
1184.40000	-0.0214	
1184.60000	-0.0204	
1184.80000	-0.0197	
1185.00000	-0.0188	
1185.20000	-0.0182	
1185.40000	-0.0168	
1185.60000	-0.0157	
1185.80000	-0.0143	
1186.00000	-0.0130	
1186.20000	-0.0116	
1186.40000	-0.0101	
1186.60000	-0.0081	
1186.80000	-0.0066	
1187.00000	-0.0046	
1187.20000	-0.0021	
1187.40000	 0.0006	
1187.60000	 0.0038	
1187.80000	 0.0078	
1188.00000	 0.0111	
1188.20000	 0.0150	
1188.40000	 0.0192	
1188.60000	 0.0238	
1188.80000	 0.0290	
1189.00000	 0.0343	
1189.20000	 0.0397	
1189.40000	 0.0456	
1189.60000	 0.0514	
1189.80000	 0.0578	
1190.00000	 0.0648	
1190.20000	 0.0722	
1190.40000	 0.0798	
1190.60000	 0.0876	
1190.80000	 0.0957	
1191.00000	 0.1042	
1191.20000	 0.1134	
1191.40000	 0.1230	
1191.60000	 0.1328	
1191.80000	 0.1433	
1192.00000	 0.1541	
1192.20000	 0.1654	
1192.40000	 0.1767	
1192.60000	 0.1883	
1192.80000	 0.2003	
1193.00000	 0.2124	
1193.20000	 0.2251	
1193.40000	 0.2379	
1193.60000	 0.2507	
1193.80000	 0.2640	
1194.00000	 0.2769	
1194.20000	 0.2898	
1194.40000	 0.3018	
1194.60000	 0.3139	
1194.80000	 0.3252	
1195.00000	 0.3360	
1195.20000	 0.3458	
1195.40000	 0.3545	
1195.60000	 0.3618	
1195.80000	 0.3676	
1196.00000	 0.3717	
1196.20000	 0.3745	
1196.40000	 0.3749	
1196.60000	 0.3738	
1196.80000	 0.3703	
1197.00000	 0.3638	
1197.20000	 0.3539	
1197.40000	 0.3389	
1197.60000	 0.3197	
1197.80000	 0.2960	
1198.00000	 0.2676	
1198.20000	 0.2350	
1198.40000	 0.1970	
1198.60000	 0.1544	
1198.80000	 0.1068	
1199.00000	 0.0543	
1199.20000	-0.0031	
1199.40000	-0.0661	
1199.60000	-0.1332	
1199.80000	-0.2034	
1200.00000	-0.2760	
1200.20000	-0.3497	
1200.40000	-0.4242	
1200.60000	-0.4984	
1200.80000	-0.5721	
1201.00000	-0.6448	
1201.20000	-0.7169	
1201.40000	-0.7884	
1201.60000	-0.8589	
1201.80000	-0.9290	
1202.00000	-0.9984	
1202.20000	-1.0678	
1202.40000	-1.1357	
1202.60000	-1.2021	
1202.80000	-1.2656	
1203.00000	-1.3252	
1203.20000	-1.3802	
1203.40000	-1.4287	
1203.60000	-1.4703	
1203.80000	-1.5048	
1204.00000	-1.5314	
1204.20000	-1.5515	
1204.40000	-1.5648	
1204.60000	-1.5718	
1204.80000	-1.5733	
1205.00000	-1.5698	
1205.20000	-1.5614	
1205.40000	-1.5489	
1205.60000	-1.5324	
1205.80000	-1.5123	
1206.00000	-1.4900	
1206.20000	-1.4650	
1206.40000	-1.4371	
1206.60000	-1.4067	
1206.80000	-1.3741	
1207.00000	-1.3390	
1207.20000	-1.3019	
1207.40000	-1.2630	
1207.60000	-1.2230	
1207.80000	-1.1812	
1208.00000	-1.1394	
1208.20000	-1.0973	
1208.40000	-1.0558	
1208.60000	-1.0152	
1208.80000	-0.9761	
1209.00000	-0.9386	
1209.20000	-0.9029	
1209.40000	-0.8690	
1209.60000	-0.8377	
1209.80000	-0.8096	
1210.00000	-0.7832	
1210.20000	-0.7605	
1210.40000	-0.7387	
1210.60000	-0.7204	
1210.80000	-0.7040	
1211.00000	-0.6889	
1211.20000	-0.6755	
1211.40000	-0.6638	
1211.60000	-0.6525	
1211.80000	-0.6410	
1212.00000	-0.6297	
1212.20000	-0.6180	
1212.40000	-0.6065	
1212.60000	-0.5931	
1212.80000	-0.5794	
1213.00000	-0.5646	
1213.20000	-0.5490	
1213.40000	-0.5321	
1213.60000	-0.5138	
1213.80000	-0.4950	
1214.00000	-0.4762	
1214.20000	-0.4564	
1214.40000	-0.4359	
1214.60000	-0.4155	
1214.80000	-0.3949	
1215.00000	-0.3741	
1215.20000	-0.3542	
1215.40000	-0.3339	
1215.60000	-0.3136	
1215.80000	-0.2931	
1216.00000	-0.2733	
1216.20000	-0.2536	
1216.40000	-0.2333	
1216.60000	-0.2133	
1216.80000	-0.1932	
1217.00000	-0.1735	
1217.20000	-0.1540	
1217.40000	-0.1344	
1217.60000	-0.1160	
1217.80000	-0.0974	
1218.00000	-0.0793	
1218.20000	-0.0624	
1218.40000	-0.0453	
1218.60000	-0.0290	
1218.80000	-0.0128	
1219.00000	 0.0021	
1219.20000	 0.0169	
1219.40000	 0.0310	
1219.60000	 0.0447	
1219.80000	 0.0586	
1220.00000	 0.0720	
1220.20000	 0.0847	
1220.40000	 0.0969	
1220.60000	 0.1093	
1220.80000	 0.1210	
1221.00000	 0.1324	
1221.20000	 0.1434	
1221.40000	 0.1538	
1221.60000	 0.1639	
1221.80000	 0.1735	
1222.00000	 0.1828	
1222.20000	 0.1920	
1222.40000	 0.2008	
1222.60000	 0.2095	
1222.80000	 0.2177	
1223.00000	 0.2258	
1223.20000	 0.2335	
1223.40000	 0.2415	
1223.60000	 0.2495	
1223.80000	 0.2573	
1224.00000	 0.2649	
1224.20000	 0.2733	
1224.40000	 0.2818	
1224.60000	 0.2892	
1224.80000	 0.2980	
1225.00000	 0.3058	
1225.20000	 0.3142	
1225.40000	 0.3224	
1225.60000	 0.3308	
1225.80000	 0.3394	
1226.00000	 0.3479	
1226.20000	 0.3558	
1226.40000	 0.3639	
1226.60000	 0.3716	
1226.80000	 0.3790	
1227.00000	 0.3862	
1227.20000	 0.3940	
1227.40000	 0.4010	
1227.60000	 0.4076	
1227.80000	 0.4138	
1228.00000	 0.4199	
1228.20000	 0.4257	
1228.40000	 0.4309	
1228.60000	 0.4359	
1228.80000	 0.4407	
1229.00000	 0.4451	
1229.20000	 0.4494	
1229.40000	 0.4532	
1229.60000	 0.4573	
1229.80000	 0.4604	
1230.00000	 0.4640	
1230.20000	 0.4669	
1230.40000	 0.4703	
1230.60000	 0.4727	
1230.80000	 0.4756	
1231.00000	 0.4778	
1231.20000	 0.4799	
1231.40000	 0.4825	
1231.60000	 0.4842	
1231.80000	 0.4860	
1232.00000	 0.4880	
1232.20000	 0.4895	
1232.40000	 0.4910	
1232.60000	 0.4930	
1232.80000	 0.4945	
1233.00000	 0.4961	
1233.20000	 0.4976	
1233.40000	 0.4993	
1233.60000	 0.5009	
1233.80000	 0.5026	
1234.00000	 0.5045	
1234.20000	 0.5064	
1234.40000	 0.5081	
1234.60000	 0.5101	
1234.80000	 0.5121	
1235.00000	 0.5136	
1235.20000	 0.5151	
1235.40000	 0.5165	
1235.60000	 0.5176	
1235.80000	 0.5190	
1236.00000	 0.5196	
1236.20000	 0.5199	
1236.40000	 0.5202	
1236.60000	 0.5206	
1236.80000	 0.5199	
1237.00000	 0.5196	
