______________________	______________________	______________________	______________________	______________________	______________________	______________________	______________________	______________________	
data file :	C:\emka\iox_2_9_5_73\data\20190517-piga.mkt
saved on :	
______________________	______________________	______________________	______________________	______________________	______________________	______________________	______________________	______________________	
printed on :	june   6, 2019, at  10: 58: 33
export mode :	to text file
print author :	no_logged_user
print com :	no available comment
ecgAuto version :	3.3.5.6 []
original sample freq (Hz) :
	 ECG	5000
	 Pig Aortic Pressure	1000
	 Cam Fire	500
	 Bloom A	500
	 Bloom B	500
	 CFR	1000
undersampling factor :		1
print sample freq (Hz) :		5000
______________________	______________________	______________________	______________________	______________________	______________________	______________________	______________________	______________________	

time ms	 ECG	
	V	


...................	...................	...................	...................	...................	...................	...................	...................	...................	...................	...................	...................	...................	
zone-start :	exp_JoVE-VERP	time duration s :	00.00000	data duration s :	15.00000	stream section :	1
in-period :	op 1, p 1, r 1, p[r] 1	Noname #1	0.00e+00	
start period-time :	  00:44:56.985
start CPU time :	may  17, 2019, 14: 01: 44
start site-time :	  00:44:56.986
...................	...................	...................	...................	...................	...................	...................	...................	...................	...................	...................	...................	...................	
0.20000	-0.0420	
0.40000	-0.0421	
0.60000	-0.0421	
0.80000	-0.0421	
1.00000	-0.0421	
1.20000	-0.0423	
1.40000	-0.0426	
1.60000	-0.0427	
1.80000	-0.0432	
2.00000	-0.0433	
2.20000	-0.0432	
2.40000	-0.0436	
2.60000	-0.0433	
2.80000	-0.0436	
3.00000	-0.0436	
3.20000	-0.0438	
3.40000	-0.0438	
3.60000	-0.0433	
3.80000	-0.0438	
4.00000	-0.0436	
4.20000	-0.0436	
4.40000	-0.0439	
4.60000	-0.0430	
4.80000	-0.0430	
5.00000	-0.0430	
5.20000	-0.0429	
5.40000	-0.0429	
5.60000	-0.0426	
5.80000	-0.0424	
6.00000	-0.0424	
6.20000	-0.0421	
6.40000	-0.0421	
6.60000	-0.0423	
6.80000	-0.0421	
7.00000	-0.0420	
7.20000	-0.0420	
7.40000	-0.0418	
7.60000	-0.0417	
7.80000	-0.0417	
8.00000	-0.0412	
8.20000	-0.0410	
8.40000	-0.0410	
8.60000	-0.0412	
8.80000	-0.0410	
9.00000	-0.0412	
9.20000	-0.0412	
9.40000	-0.0412	
9.60000	-0.0415	
9.80000	-0.0412	
10.00000	-0.0417	
10.20000	-0.0412	
10.40000	-0.0412	
10.60000	-0.0410	
10.80000	-0.0409	
11.00000	-0.0412	
11.20000	-0.0409	
11.40000	-0.0410	
11.60000	-0.0412	
11.80000	-0.0412	
12.00000	-0.0410	
12.20000	-0.0409	
12.40000	-0.0410	
12.60000	-0.0407	
12.80000	-0.0410	
13.00000	-0.0415	
13.20000	-0.0410	
13.40000	-0.0407	
13.60000	-0.0410	
13.80000	-0.0412	
14.00000	-0.0412	
14.20000	-0.0409	
14.40000	-0.0410	
14.60000	-0.0407	
14.80000	-0.0412	
15.00000	-0.0412	
15.20000	-0.0415	
15.40000	-0.0418	
15.60000	-0.0417	
15.80000	-0.0418	
16.00000	-0.0420	
16.20000	-0.0420	
16.40000	-0.0421	
16.60000	-0.0421	
16.80000	-0.0424	
17.00000	-0.0423	
17.20000	-0.0424	
17.40000	-0.0421	
17.60000	-0.0424	
17.80000	-0.0424	
18.00000	-0.0421	
18.20000	-0.0424	
18.40000	-0.0426	
18.60000	-0.0427	
18.80000	-0.0427	
19.00000	-0.0430	
19.20000	-0.0433	
19.40000	-0.0432	
19.60000	-0.0430	
19.80000	-0.0430	
20.00000	-0.0430	
20.20000	-0.0427	
20.40000	-0.0427	
20.60000	-0.0430	
20.80000	-0.0426	
21.00000	-0.0424	
21.20000	-0.0421	
21.40000	-0.0424	
21.60000	-0.0424	
21.80000	-0.0424	
22.00000	-0.0423	
22.20000	-0.0420	
22.40000	-0.0426	
22.60000	-0.0423	
22.80000	-0.0423	
23.00000	-0.0423	
23.20000	-0.0423	
23.40000	-0.0421	
23.60000	-0.0420	
23.80000	-0.0418	
24.00000	-0.0417	
24.20000	-0.0412	
24.40000	-0.0415	
24.60000	-0.0412	
24.80000	-0.0410	
25.00000	-0.0407	
25.20000	-0.0412	
25.40000	-0.0412	
25.60000	-0.0415	
25.80000	-0.0412	
26.00000	-0.0410	
26.20000	-0.0415	
26.40000	-0.0415	
26.60000	-0.0410	
26.80000	-0.0417	
27.00000	-0.0415	
27.20000	-0.0407	
27.40000	-0.0410	
27.60000	-0.0412	
27.80000	-0.0409	
28.00000	-0.0410	
28.20000	-0.0409	
28.40000	-0.0407	
28.60000	-0.0407	
28.80000	-0.0403	
29.00000	-0.0404	
29.20000	-0.0403	
29.40000	-0.0403	
29.60000	-0.0404	
29.80000	-0.0404	
30.00000	-0.0404	
30.20000	-0.0406	
30.40000	-0.0404	
30.60000	-0.0406	
30.80000	-0.0406	
31.00000	-0.0404	
31.20000	-0.0403	
31.40000	-0.0404	
31.60000	-0.0409	
31.80000	-0.0406	
32.00000	-0.0406	
32.20000	-0.0409	
32.40000	-0.0409	
32.60000	-0.0407	
32.80000	-0.0407	
33.00000	-0.0409	
33.20000	-0.0412	
33.40000	-0.0412	
33.60000	-0.0417	
33.80000	-0.0417	
34.00000	-0.0418	
34.20000	-0.0418	
34.40000	-0.0421	
34.60000	-0.0420	
34.80000	-0.0423	
35.00000	-0.0424	
35.20000	-0.0426	
35.40000	-0.0427	
35.60000	-0.0429	
35.80000	-0.0429	
36.00000	-0.0430	
36.20000	-0.0429	
36.40000	-0.0427	
36.60000	-0.0427	
36.80000	-0.0429	
37.00000	-0.0427	
37.20000	-0.0427	
37.40000	-0.0424	
37.60000	-0.0426	
37.80000	-0.0423	
38.00000	-0.0423	
38.20000	-0.0426	
38.40000	-0.0426	
38.60000	-0.0426	
38.80000	-0.0424	
39.00000	-0.0423	
39.20000	-0.0423	
39.40000	-0.0423	
39.60000	-0.0424	
39.80000	-0.0424	
40.00000	-0.0424	
40.20000	-0.0421	
40.40000	-0.0420	
40.60000	-0.0421	
40.80000	-0.0418	
41.00000	-0.0412	
41.20000	-0.0417	
41.40000	-0.0415	
41.60000	-0.0410	
41.80000	-0.0409	
42.00000	-0.0412	
42.20000	-0.0415	
42.40000	-0.0417	
42.60000	-0.0417	
42.80000	-0.0420	
43.00000	-0.0417	
43.20000	-0.0415	
43.40000	-0.0417	
43.60000	-0.0418	
43.80000	-0.0417	
44.00000	-0.0415	
44.20000	-0.0412	
44.40000	-0.0418	
44.60000	-0.0415	
44.80000	-0.0409	
45.00000	-0.0412	
45.20000	-0.0410	
45.40000	-0.0412	
45.60000	-0.0409	
45.80000	-0.0410	
46.00000	-0.0415	
46.20000	-0.0415	
46.40000	-0.0415	
46.60000	-0.0412	
46.80000	-0.0417	
47.00000	-0.0418	
47.20000	-0.0417	
47.40000	-0.0417	
47.60000	-0.0415	
47.80000	-0.0412	
48.00000	-0.0410	
48.20000	-0.0412	
48.40000	-0.0410	
48.60000	-0.0415	
48.80000	-0.0410	
49.00000	-0.0412	
49.20000	-0.0409	
49.40000	-0.0412	
49.60000	-0.0412	
49.80000	-0.0410	
50.00000	-0.0417	
50.20000	-0.0412	
50.40000	-0.0415	
50.60000	-0.0417	
50.80000	-0.0417	
51.00000	-0.0418	
51.20000	-0.0415	
51.40000	-0.0418	
51.60000	-0.0420	
51.80000	-0.0421	
52.00000	-0.0421	
52.20000	-0.0424	
52.40000	-0.0426	
52.60000	-0.0426	
52.80000	-0.0426	
53.00000	-0.0426	
53.20000	-0.0427	
53.40000	-0.0427	
53.60000	-0.0429	
53.80000	-0.0427	
54.00000	-0.0424	
54.20000	-0.0427	
54.40000	-0.0427	
54.60000	-0.0426	
54.80000	-0.0427	
55.00000	-0.0427	
55.20000	-0.0427	
55.40000	-0.0424	
55.60000	-0.0424	
55.80000	-0.0426	
56.00000	-0.0424	
56.20000	-0.0424	
56.40000	-0.0427	
56.60000	-0.0426	
56.80000	-0.0426	
57.00000	-0.0424	
57.20000	-0.0424	
57.40000	-0.0421	
57.60000	-0.0421	
57.80000	-0.0420	
58.00000	-0.0418	
58.20000	-0.0417	
58.40000	-0.0417	
58.60000	-0.0415	
58.80000	-0.0412	
59.00000	-0.0417	
59.20000	-0.0415	
59.40000	-0.0407	
59.60000	-0.0409	
59.80000	-0.0412	
60.00000	-0.0412	
60.20000	-0.0410	
60.40000	-0.0415	
60.60000	-0.0412	
60.80000	-0.0412	
61.00000	-0.0412	
61.20000	-0.0410	
61.40000	-0.0412	
61.60000	-0.0412	
61.80000	-0.0409	
62.00000	-0.0409	
62.20000	-0.0410	
62.40000	-0.0407	
62.60000	-0.0407	
62.80000	-0.0410	
63.00000	-0.0409	
63.20000	-0.0410	
63.40000	-0.0409	
63.60000	-0.0415	
63.80000	-0.0412	
64.00000	-0.0409	
64.20000	-0.0412	
64.40000	-0.0409	
64.60000	-0.0410	
64.80000	-0.0412	
65.00000	-0.0410	
65.20000	-0.0415	
65.40000	-0.0415	
65.60000	-0.0417	
65.80000	-0.0417	
66.00000	-0.0417	
66.20000	-0.0418	
66.40000	-0.0418	
66.60000	-0.0423	
66.80000	-0.0423	
67.00000	-0.0421	
67.20000	-0.0421	
67.40000	-0.0423	
67.60000	-0.0421	
67.80000	-0.0418	
68.00000	-0.0424	
68.20000	-0.0424	
68.40000	-0.0426	
68.60000	-0.0427	
68.80000	-0.0430	
69.00000	-0.0427	
69.20000	-0.0429	
69.40000	-0.0430	
69.60000	-0.0433	
69.80000	-0.0429	
70.00000	-0.0429	
70.20000	-0.0429	
70.40000	-0.0427	
70.60000	-0.0430	
70.80000	-0.0424	
71.00000	-0.0427	
71.20000	-0.0429	
71.40000	-0.0427	
71.60000	-0.0430	
71.80000	-0.0427	
72.00000	-0.0430	
72.20000	-0.0430	
72.40000	-0.0430	
72.60000	-0.0429	
72.80000	-0.0429	
73.00000	-0.0430	
73.20000	-0.0430	
73.40000	-0.0430	
73.60000	-0.0426	
73.80000	-0.0430	
74.00000	-0.0427	
74.20000	-0.0427	
74.40000	-0.0426	
74.60000	-0.0426	
74.80000	-0.0421	
75.00000	-0.0424	
75.20000	-0.0421	
75.40000	-0.0421	
75.60000	-0.0423	
75.80000	-0.0420	
76.00000	-0.0418	
76.20000	-0.0418	
76.40000	-0.0418	
76.60000	-0.0418	
76.80000	-0.0418	
77.00000	-0.0418	
77.20000	-0.0418	
77.40000	-0.0420	
77.60000	-0.0420	
77.80000	-0.0417	
78.00000	-0.0417	
78.20000	-0.0415	
78.40000	-0.0410	
78.60000	-0.0417	
78.80000	-0.0412	
79.00000	-0.0412	
79.20000	-0.0412	
79.40000	-0.0412	
79.60000	-0.0418	
79.80000	-0.0420	
80.00000	-0.0418	
80.20000	-0.0420	
80.40000	-0.0421	
80.60000	-0.0417	
80.80000	-0.0417	
81.00000	-0.0412	
81.20000	-0.0417	
81.40000	-0.0415	
81.60000	-0.0415	
81.80000	-0.0417	
82.00000	-0.0420	
82.20000	-0.0415	
82.40000	-0.0420	
82.60000	-0.0420	
82.80000	-0.0418	
83.00000	-0.0421	
83.20000	-0.0426	
83.40000	-0.0427	
83.60000	-0.0426	
83.80000	-0.0426	
84.00000	-0.0427	
84.20000	-0.0426	
84.40000	-0.0424	
84.60000	-0.0424	
84.80000	-0.0426	
85.00000	-0.0429	
85.20000	-0.0432	
85.40000	-0.0432	
85.60000	-0.0433	
85.80000	-0.0436	
86.00000	-0.0438	
86.20000	-0.0433	
86.40000	-0.0432	
86.60000	-0.0432	
86.80000	-0.0432	
87.00000	-0.0430	
87.20000	-0.0429	
87.40000	-0.0429	
87.60000	-0.0427	
87.80000	-0.0427	
88.00000	-0.0426	
88.20000	-0.0427	
88.40000	-0.0427	
88.60000	-0.0427	
88.80000	-0.0423	
89.00000	-0.0424	
89.20000	-0.0426	
89.40000	-0.0423	
89.60000	-0.0423	
89.80000	-0.0424	
90.00000	-0.0421	
90.20000	-0.0418	
90.40000	-0.0423	
90.60000	-0.0420	
90.80000	-0.0418	
91.00000	-0.0418	
91.20000	-0.0418	
91.40000	-0.0415	
91.60000	-0.0412	
91.80000	-0.0415	
92.00000	-0.0409	
92.20000	-0.0407	
92.40000	-0.0412	
92.60000	-0.0409	
92.80000	-0.0406	
93.00000	-0.0407	
93.20000	-0.0404	
93.40000	-0.0404	
93.60000	-0.0407	
93.80000	-0.0404	
94.00000	-0.0404	
94.20000	-0.0404	
94.40000	-0.0404	
94.60000	-0.0400	
94.80000	-0.0403	
95.00000	-0.0403	
95.20000	-0.0403	
95.40000	-0.0401	
95.60000	-0.0404	
95.80000	-0.0406	
96.00000	-0.0403	
96.20000	-0.0406	
96.40000	-0.0412	
96.60000	-0.0410	
96.80000	-0.0407	
97.00000	-0.0410	
97.20000	-0.0410	
97.40000	-0.0410	
97.60000	-0.0409	
97.80000	-0.0409	
98.00000	-0.0409	
98.20000	-0.0410	
98.40000	-0.0410	
98.60000	-0.0410	
98.80000	-0.0410	
99.00000	-0.0410	
99.20000	-0.0412	
99.40000	-0.0410	
99.60000	-0.0415	
99.80000	-0.0415	
100.00000	-0.0415	
100.20000	-0.0415	
100.40000	-0.0421	
100.60000	-0.0418	
100.80000	-0.0415	
101.00000	-0.0417	
101.20000	-0.0417	
101.40000	-0.0420	
101.60000	-0.0421	
101.80000	-0.0424	
102.00000	-0.0426	
102.20000	-0.0426	
102.40000	-0.0427	
102.60000	-0.0426	
102.80000	-0.0429	
103.00000	-0.0424	
103.20000	-0.0426	
103.40000	-0.0424	
103.60000	-0.0424	
103.80000	-0.0426	
104.00000	-0.0426	
104.20000	-0.0426	
104.40000	-0.0423	
104.60000	-0.0423	
104.80000	-0.0426	
105.00000	-0.0424	
105.20000	-0.0423	
105.40000	-0.0423	
105.60000	-0.0421	
105.80000	-0.0420	
106.00000	-0.0418	
106.20000	-0.0420	
106.40000	-0.0420	
106.60000	-0.0418	
106.80000	-0.0418	
107.00000	-0.0417	
107.20000	-0.0415	
107.40000	-0.0412	
107.60000	-0.0410	
107.80000	-0.0415	
108.00000	-0.0409	
108.20000	-0.0407	
108.40000	-0.0406	
108.60000	-0.0406	
108.80000	-0.0410	
109.00000	-0.0407	
109.20000	-0.0407	
109.40000	-0.0409	
109.60000	-0.0409	
109.80000	-0.0404	
110.00000	-0.0407	
110.20000	-0.0407	
110.40000	-0.0410	
110.60000	-0.0409	
110.80000	-0.0407	
111.00000	-0.0410	
111.20000	-0.0407	
111.40000	-0.0407	
111.60000	-0.0409	
111.80000	-0.0409	
112.00000	-0.0412	
112.20000	-0.0410	
112.40000	-0.0409	
112.60000	-0.0415	
112.80000	-0.0417	
113.00000	-0.0410	
113.20000	-0.0417	
113.40000	-0.0415	
113.60000	-0.0415	
113.80000	-0.0417	
114.00000	-0.0415	
114.20000	-0.0418	
114.40000	-0.0418	
114.60000	-0.0412	
114.80000	-0.0418	
115.00000	-0.0417	
115.20000	-0.0420	
115.40000	-0.0420	
115.60000	-0.0418	
115.80000	-0.0421	
116.00000	-0.0420	
116.20000	-0.0421	
116.40000	-0.0421	
116.60000	-0.0423	
116.80000	-0.0423	
117.00000	-0.0424	
117.20000	-0.0421	
117.40000	-0.0420	
117.60000	-0.0421	
117.80000	-0.0420	
118.00000	-0.0421	
118.20000	-0.0421	
118.40000	-0.0423	
118.60000	-0.0424	
118.80000	-0.0427	
119.00000	-0.0426	
119.20000	-0.0426	
119.40000	-0.0424	
119.60000	-0.0426	
119.80000	-0.0424	
120.00000	-0.0427	
120.20000	-0.0429	
120.40000	-0.0426	
120.60000	-0.0426	
120.80000	-0.0424	
121.00000	-0.0424	
121.20000	-0.0424	
121.40000	-0.0429	
121.60000	-0.0429	
121.80000	-0.0427	
122.00000	-0.0426	
122.20000	-0.0426	
122.40000	-0.0426	
122.60000	-0.0427	
122.80000	-0.0421	
123.00000	-0.0423	
123.20000	-0.0424	
123.40000	-0.0424	
123.60000	-0.0420	
123.80000	-0.0420	
124.00000	-0.0421	
124.20000	-0.0418	
124.40000	-0.0417	
124.60000	-0.0415	
124.80000	-0.0412	
125.00000	-0.0409	
125.20000	-0.0407	
125.40000	-0.0407	
125.60000	-0.0407	
125.80000	-0.0407	
126.00000	-0.0406	
126.20000	-0.0406	
126.40000	-0.0404	
126.60000	-0.0404	
126.80000	-0.0404	
127.00000	-0.0404	
127.20000	-0.0406	
127.40000	-0.0404	
127.60000	-0.0403	
127.80000	-0.0403	
128.00000	-0.0406	
128.20000	-0.0403	
128.40000	-0.0401	
128.60000	-0.0404	
128.80000	-0.0403	
129.00000	-0.0404	
129.20000	-0.0406	
129.40000	-0.0404	
129.60000	-0.0404	
129.80000	-0.0407	
130.00000	-0.0406	
130.20000	-0.0407	
130.40000	-0.0410	
130.60000	-0.0409	
130.80000	-0.0410	
131.00000	-0.0412	
131.20000	-0.0410	
131.40000	-0.0415	
131.60000	-0.0415	
131.80000	-0.0420	
132.00000	-0.0418	
132.20000	-0.0415	
132.40000	-0.0418	
132.60000	-0.0421	
132.80000	-0.0421	
133.00000	-0.0424	
133.20000	-0.0423	
133.40000	-0.0427	
133.60000	-0.0426	
133.80000	-0.0429	
134.00000	-0.0427	
134.20000	-0.0430	
134.40000	-0.0427	
134.60000	-0.0426	
134.80000	-0.0430	
135.00000	-0.0430	
135.20000	-0.0430	
135.40000	-0.0433	
135.60000	-0.0438	
135.80000	-0.0436	
136.00000	-0.0432	
136.20000	-0.0432	
136.40000	-0.0432	
136.60000	-0.0432	
136.80000	-0.0429	
137.00000	-0.0429	
137.20000	-0.0430	
137.40000	-0.0426	
137.60000	-0.0426	
137.80000	-0.0427	
138.00000	-0.0427	
138.20000	-0.0426	
138.40000	-0.0427	
138.60000	-0.0424	
138.80000	-0.0423	
139.00000	-0.0426	
139.20000	-0.0421	
139.40000	-0.0421	
139.60000	-0.0421	
139.80000	-0.0423	
140.00000	-0.0420	
140.20000	-0.0420	
140.40000	-0.0421	
140.60000	-0.0421	
140.80000	-0.0418	
141.00000	-0.0418	
141.20000	-0.0417	
141.40000	-0.0412	
141.60000	-0.0410	
141.80000	-0.0412	
142.00000	-0.0415	
142.20000	-0.0410	
142.40000	-0.0412	
142.60000	-0.0410	
142.80000	-0.0412	
143.00000	-0.0412	
143.20000	-0.0410	
143.40000	-0.0410	
143.60000	-0.0410	
143.80000	-0.0407	
144.00000	-0.0407	
144.20000	-0.0409	
144.40000	-0.0407	
144.60000	-0.0406	
144.80000	-0.0406	
145.00000	-0.0404	
145.20000	-0.0407	
145.40000	-0.0407	
145.60000	-0.0407	
145.80000	-0.0409	
146.00000	-0.0407	
146.20000	-0.0410	
146.40000	-0.0412	
146.60000	-0.0409	
146.80000	-0.0412	
147.00000	-0.0415	
147.20000	-0.0409	
147.40000	-0.0410	
147.60000	-0.0410	
147.80000	-0.0412	
148.00000	-0.0415	
148.20000	-0.0417	
148.40000	-0.0418	
148.60000	-0.0418	
148.80000	-0.0418	
149.00000	-0.0421	
149.20000	-0.0421	
149.40000	-0.0418	
149.60000	-0.0423	
149.80000	-0.0424	
150.00000	-0.0426	
150.20000	-0.0427	
150.40000	-0.0427	
150.60000	-0.0423	
150.80000	-0.0427	
151.00000	-0.0427	
151.20000	-0.0424	
151.40000	-0.0424	
151.60000	-0.0426	
151.80000	-0.0429	
152.00000	-0.0427	
152.20000	-0.0429	
152.40000	-0.0427	
152.60000	-0.0427	
152.80000	-0.0429	
153.00000	-0.0429	
153.20000	-0.0430	
153.40000	-0.0429	
153.60000	-0.0426	
153.80000	-0.0427	
154.00000	-0.0427	
154.20000	-0.0426	
154.40000	-0.0424	
154.60000	-0.0424	
154.80000	-0.0424	
155.00000	-0.0423	
155.20000	-0.0421	
155.40000	-0.0421	
155.60000	-0.0421	
155.80000	-0.0423	
156.00000	-0.0421	
156.20000	-0.0421	
156.40000	-0.0423	
156.60000	-0.0423	
156.80000	-0.0423	
157.00000	-0.0423	
157.20000	-0.0423	
157.40000	-0.0421	
157.60000	-0.0418	
157.80000	-0.0418	
158.00000	-0.0417	
158.20000	-0.0417	
158.40000	-0.0417	
158.60000	-0.0417	
158.80000	-0.0415	
159.00000	-0.0412	
159.20000	-0.0412	
159.40000	-0.0410	
159.60000	-0.0410	
159.80000	-0.0410	
160.00000	-0.0412	
160.20000	-0.0409	
160.40000	-0.0407	
160.60000	-0.0409	
160.80000	-0.0409	
161.00000	-0.0409	
161.20000	-0.0407	
161.40000	-0.0407	
161.60000	-0.0406	
161.80000	-0.0409	
162.00000	-0.0407	
162.20000	-0.0410	
162.40000	-0.0410	
162.60000	-0.0407	
162.80000	-0.0407	
163.00000	-0.0409	
163.20000	-0.0407	
163.40000	-0.0412	
163.60000	-0.0412	
163.80000	-0.0412	
164.00000	-0.0412	
164.20000	-0.0410	
164.40000	-0.0409	
164.60000	-0.0409	
164.80000	-0.0410	
165.00000	-0.0409	
165.20000	-0.0409	
165.40000	-0.0410	
165.60000	-0.0407	
165.80000	-0.0407	
166.00000	-0.0407	
166.20000	-0.0407	
166.40000	-0.0407	
166.60000	-0.0410	
166.80000	-0.0410	
167.00000	-0.0410	
167.20000	-0.0412	
167.40000	-0.0412	
167.60000	-0.0410	
167.80000	-0.0410	
168.00000	-0.0412	
168.20000	-0.0410	
168.40000	-0.0415	
168.60000	-0.0417	
168.80000	-0.0415	
169.00000	-0.0415	
169.20000	-0.0421	
169.40000	-0.0423	
169.60000	-0.0417	
169.80000	-0.0420	
170.00000	-0.0421	
170.20000	-0.0421	
170.40000	-0.0423	
170.60000	-0.0421	
170.80000	-0.0420	
171.00000	-0.0420	
171.20000	-0.0417	
171.40000	-0.0420	
171.60000	-0.0420	
171.80000	-0.0421	
172.00000	-0.0418	
172.20000	-0.0418	
172.40000	-0.0418	
172.60000	-0.0420	
172.80000	-0.0421	
173.00000	-0.0421	
173.20000	-0.0421	
173.40000	-0.0417	
173.60000	-0.0418	
173.80000	-0.0420	
174.00000	-0.0415	
174.20000	-0.0410	
174.40000	-0.0415	
174.60000	-0.0412	
174.80000	-0.0407	
175.00000	-0.0406	
175.20000	-0.0407	
175.40000	-0.0407	
175.60000	-0.0406	
175.80000	-0.0406	
176.00000	-0.0404	
176.20000	-0.0404	
176.40000	-0.0404	
176.60000	-0.0401	
176.80000	-0.0403	
177.00000	-0.0401	
177.20000	-0.0400	
177.40000	-0.0401	
177.60000	-0.0401	
177.80000	-0.0401	
178.00000	-0.0401	
178.20000	-0.0400	
178.40000	-0.0398	
178.60000	-0.0400	
178.80000	-0.0395	
179.00000	-0.0397	
179.20000	-0.0398	
179.40000	-0.0403	
179.60000	-0.0401	
179.80000	-0.0407	
180.00000	-0.0404	
180.20000	-0.0409	
180.40000	-0.0407	
180.60000	-0.0410	
180.80000	-0.0412	
181.00000	-0.0409	
181.20000	-0.0410	
181.40000	-0.0412	
181.60000	-0.0415	
181.80000	-0.0415	
182.00000	-0.0418	
182.20000	-0.0420	
182.40000	-0.0420	
182.60000	-0.0418	
182.80000	-0.0418	
183.00000	-0.0423	
183.20000	-0.0426	
183.40000	-0.0421	
183.60000	-0.0424	
183.80000	-0.0426	
184.00000	-0.0427	
184.20000	-0.0427	
184.40000	-0.0424	
184.60000	-0.0426	
184.80000	-0.0424	
185.00000	-0.0426	
185.20000	-0.0427	
185.40000	-0.0427	
185.60000	-0.0426	
185.80000	-0.0429	
186.00000	-0.0427	
186.20000	-0.0427	
186.40000	-0.0426	
186.60000	-0.0424	
186.80000	-0.0429	
187.00000	-0.0426	
187.20000	-0.0426	
187.40000	-0.0424	
187.60000	-0.0427	
187.80000	-0.0424	
188.00000	-0.0426	
188.20000	-0.0429	
188.40000	-0.0427	
188.60000	-0.0427	
188.80000	-0.0424	
189.00000	-0.0426	
189.20000	-0.0426	
189.40000	-0.0426	
189.60000	-0.0427	
189.80000	-0.0427	
190.00000	-0.0424	
190.20000	-0.0421	
190.40000	-0.0420	
190.60000	-0.0420	
190.80000	-0.0417	
191.00000	-0.0417	
191.20000	-0.0415	
191.40000	-0.0410	
191.60000	-0.0410	
191.80000	-0.0407	
192.00000	-0.0407	
192.20000	-0.0406	
192.40000	-0.0407	
192.60000	-0.0406	
192.80000	-0.0406	
193.00000	-0.0404	
193.20000	-0.0406	
193.40000	-0.0406	
193.60000	-0.0406	
193.80000	-0.0407	
194.00000	-0.0403	
194.20000	-0.0404	
194.40000	-0.0406	
194.60000	-0.0404	
194.80000	-0.0400	
195.00000	-0.0398	
195.20000	-0.0400	
195.40000	-0.0400	
195.60000	-0.0400	
195.80000	-0.0404	
196.00000	-0.0401	
196.20000	-0.0401	
196.40000	-0.0403	
196.60000	-0.0403	
196.80000	-0.0406	
197.00000	-0.0409	
197.20000	-0.0404	
197.40000	-0.0407	
197.60000	-0.0410	
197.80000	-0.0406	
198.00000	-0.0409	
198.20000	-0.0412	
198.40000	-0.0412	
198.60000	-0.0417	
198.80000	-0.0417	
199.00000	-0.0420	
199.20000	-0.0421	
199.40000	-0.0421	
199.60000	-0.0423	
199.80000	-0.0427	
200.00000	-0.0426	
200.20000	-0.0430	
200.40000	-0.0429	
200.60000	-0.0427	
200.80000	-0.0429	
201.00000	-0.0426	
201.20000	-0.0424	
201.40000	-0.0429	
201.60000	-0.0427	
201.80000	-0.0433	
202.00000	-0.0433	
202.20000	-0.0430	
202.40000	-0.0432	
202.60000	-0.0436	
202.80000	-0.0429	
203.00000	-0.0430	
203.20000	-0.0429	
203.40000	-0.0426	
203.60000	-0.0423	
203.80000	-0.0424	
204.00000	-0.0421	
204.20000	-0.0420	
204.40000	-0.0423	
204.60000	-0.0421	
204.80000	-0.0423	
205.00000	-0.0421	
205.20000	-0.0421	
205.40000	-0.0420	
205.60000	-0.0420	
205.80000	-0.0420	
206.00000	-0.0418	
206.20000	-0.0420	
206.40000	-0.0417	
206.60000	-0.0415	
206.80000	-0.0415	
207.00000	-0.0410	
207.20000	-0.0409	
207.40000	-0.0407	
207.60000	-0.0406	
207.80000	-0.0404	
208.00000	-0.0404	
208.20000	-0.0401	
208.40000	-0.0404	
208.60000	-0.0400	
208.80000	-0.0400	
209.00000	-0.0400	
209.20000	-0.0397	
209.40000	-0.0400	
209.60000	-0.0397	
209.80000	-0.0397	
210.00000	-0.0397	
210.20000	-0.0397	
210.40000	-0.0397	
210.60000	-0.0397	
210.80000	-0.0400	
211.00000	-0.0398	
211.20000	-0.0400	
211.40000	-0.0397	
211.60000	-0.0397	
211.80000	-0.0398	
212.00000	-0.0398	
212.20000	-0.0398	
212.40000	-0.0400	
212.60000	-0.0401	
212.80000	-0.0403	
213.00000	-0.0403	
213.20000	-0.0410	
213.40000	-0.0410	
213.60000	-0.0415	
213.80000	-0.0415	
214.00000	-0.0415	
214.20000	-0.0417	
214.40000	-0.0417	
214.60000	-0.0418	
214.80000	-0.0415	
215.00000	-0.0412	
215.20000	-0.0417	
215.40000	-0.0412	
215.60000	-0.0412	
215.80000	-0.0412	
216.00000	-0.0410	
216.20000	-0.0412	
216.40000	-0.0410	
216.60000	-0.0415	
216.80000	-0.0421	
217.00000	-0.0420	
217.20000	-0.0420	
217.40000	-0.0421	
217.60000	-0.0421	
217.80000	-0.0421	
218.00000	-0.0420	
218.20000	-0.0421	
218.40000	-0.0427	
218.60000	-0.0427	
218.80000	-0.0429	
219.00000	-0.0429	
219.20000	-0.0430	
219.40000	-0.0433	
219.60000	-0.0433	
219.80000	-0.0430	
220.00000	-0.0433	
220.20000	-0.0430	
220.40000	-0.0430	
220.60000	-0.0430	
220.80000	-0.0430	
221.00000	-0.0429	
221.20000	-0.0430	
221.40000	-0.0432	
221.60000	-0.0429	
221.80000	-0.0430	
222.00000	-0.0427	
222.20000	-0.0427	
222.40000	-0.0424	
222.60000	-0.0427	
222.80000	-0.0424	
223.00000	-0.0423	
223.20000	-0.0423	
223.40000	-0.0418	
223.60000	-0.0421	
223.80000	-0.0420	
224.00000	-0.0418	
224.20000	-0.0415	
224.40000	-0.0417	
224.60000	-0.0417	
224.80000	-0.0410	
225.00000	-0.0410	
225.20000	-0.0409	
225.40000	-0.0409	
225.60000	-0.0406	
225.80000	-0.0410	
226.00000	-0.0404	
226.20000	-0.0407	
226.40000	-0.0407	
226.60000	-0.0407	
226.80000	-0.0406	
227.00000	-0.0407	
227.20000	-0.0407	
227.40000	-0.0406	
227.60000	-0.0407	
227.80000	-0.0406	
228.00000	-0.0406	
228.20000	-0.0400	
228.40000	-0.0403	
228.60000	-0.0401	
228.80000	-0.0404	
229.00000	-0.0404	
229.20000	-0.0401	
229.40000	-0.0403	
229.60000	-0.0403	
229.80000	-0.0404	
230.00000	-0.0406	
230.20000	-0.0406	
230.40000	-0.0409	
230.60000	-0.0406	
230.80000	-0.0404	
231.00000	-0.0404	
231.20000	-0.0403	
231.40000	-0.0406	
231.60000	-0.0407	
231.80000	-0.0404	
232.00000	-0.0407	
232.20000	-0.0406	
232.40000	-0.0407	
232.60000	-0.0407	
232.80000	-0.0407	
233.00000	-0.0407	
233.20000	-0.0412	
233.40000	-0.0412	
233.60000	-0.0417	
233.80000	-0.0420	
234.00000	-0.0417	
234.20000	-0.0415	
234.40000	-0.0415	
234.60000	-0.0415	
234.80000	-0.0417	
235.00000	-0.0421	
235.20000	-0.0423	
235.40000	-0.0423	
235.60000	-0.0421	
235.80000	-0.0424	
236.00000	-0.0423	
236.20000	-0.0426	
236.40000	-0.0426	
236.60000	-0.0423	
236.80000	-0.0423	
237.00000	-0.0424	
237.20000	-0.0426	
237.40000	-0.0427	
237.60000	-0.0429	
237.80000	-0.0427	
238.00000	-0.0427	
238.20000	-0.0429	
238.40000	-0.0429	
238.60000	-0.0427	
238.80000	-0.0427	
239.00000	-0.0427	
239.20000	-0.0424	
239.40000	-0.0423	
239.60000	-0.0427	
239.80000	-0.0423	
240.00000	-0.0420	
240.20000	-0.0418	
240.40000	-0.0417	
240.60000	-0.0415	
240.80000	-0.0412	
241.00000	-0.0410	
241.20000	-0.0412	
241.40000	-0.0409	
241.60000	-0.0410	
241.80000	-0.0412	
242.00000	-0.0410	
242.20000	-0.0410	
242.40000	-0.0407	
242.60000	-0.0407	
242.80000	-0.0412	
243.00000	-0.0410	
243.20000	-0.0410	
243.40000	-0.0412	
243.60000	-0.0410	
243.80000	-0.0410	
244.00000	-0.0407	
244.20000	-0.0407	
244.40000	-0.0406	
244.60000	-0.0403	
244.80000	-0.0401	
245.00000	-0.0403	
245.20000	-0.0403	
245.40000	-0.0403	
245.60000	-0.0403	
245.80000	-0.0404	
246.00000	-0.0404	
246.20000	-0.0403	
246.40000	-0.0404	
246.60000	-0.0407	
246.80000	-0.0406	
247.00000	-0.0410	
247.20000	-0.0407	
247.40000	-0.0409	
247.60000	-0.0407	
247.80000	-0.0407	
248.00000	-0.0409	
248.20000	-0.0410	
248.40000	-0.0409	
248.60000	-0.0409	
248.80000	-0.0409	
249.00000	-0.0412	
249.20000	-0.0415	
249.40000	-0.0412	
249.60000	-0.0412	
249.80000	-0.0418	
250.00000	-0.0415	
250.20000	-0.0420	
250.40000	-0.0418	
250.60000	-0.0417	
250.80000	-0.0418	
251.00000	-0.0418	
251.20000	-0.0415	
251.40000	-0.0418	
251.60000	-0.0418	
251.80000	-0.0420	
252.00000	-0.0424	
252.20000	-0.0421	
252.40000	-0.0426	
252.60000	-0.0426	
252.80000	-0.0426	
253.00000	-0.0424	
253.20000	-0.0426	
253.40000	-0.0426	
253.60000	-0.0421	
253.80000	-0.0423	
254.00000	-0.0423	
254.20000	-0.0426	
254.40000	-0.0423	
254.60000	-0.0424	
254.80000	-0.0424	
255.00000	-0.0424	
255.20000	-0.0423	
255.40000	-0.0423	
255.60000	-0.0421	
255.80000	-0.0421	
256.00000	-0.0418	
256.20000	-0.0421	
256.40000	-0.0423	
256.60000	-0.0426	
256.80000	-0.0423	
257.00000	-0.0423	
257.20000	-0.0423	
257.40000	-0.0421	
257.60000	-0.0421	
257.80000	-0.0421	
258.00000	-0.0420	
258.20000	-0.0418	
258.40000	-0.0418	
258.60000	-0.0415	
258.80000	-0.0412	
259.00000	-0.0409	
259.20000	-0.0410	
259.40000	-0.0409	
259.60000	-0.0407	
259.80000	-0.0407	
260.00000	-0.0407	
260.20000	-0.0407	
260.40000	-0.0407	
260.60000	-0.0406	
260.80000	-0.0410	
261.00000	-0.0407	
261.20000	-0.0410	
261.40000	-0.0407	
261.60000	-0.0407	
261.80000	-0.0410	
262.00000	-0.0412	
262.20000	-0.0407	
262.40000	-0.0410	
262.60000	-0.0415	
262.80000	-0.0415	
263.00000	-0.0417	
263.20000	-0.0418	
263.40000	-0.0417	
263.60000	-0.0418	
263.80000	-0.0415	
264.00000	-0.0418	
264.20000	-0.0417	
264.40000	-0.0417	
264.60000	-0.0410	
264.80000	-0.0410	
265.00000	-0.0415	
265.20000	-0.0415	
265.40000	-0.0415	
265.60000	-0.0415	
265.80000	-0.0418	
266.00000	-0.0412	
266.20000	-0.0415	
266.40000	-0.0418	
266.60000	-0.0420	
266.80000	-0.0420	
267.00000	-0.0420	
267.20000	-0.0421	
267.40000	-0.0420	
267.60000	-0.0418	
267.80000	-0.0421	
268.00000	-0.0420	
268.20000	-0.0424	
268.40000	-0.0426	
268.60000	-0.0427	
268.80000	-0.0429	
269.00000	-0.0429	
269.20000	-0.0432	
269.40000	-0.0432	
269.60000	-0.0432	
269.80000	-0.0432	
270.00000	-0.0432	
270.20000	-0.0433	
270.40000	-0.0436	
270.60000	-0.0436	
270.80000	-0.0436	
271.00000	-0.0443	
271.20000	-0.0438	
271.40000	-0.0438	
271.60000	-0.0439	
271.80000	-0.0439	
272.00000	-0.0438	
272.20000	-0.0436	
272.40000	-0.0436	
272.60000	-0.0432	
272.80000	-0.0436	
273.00000	-0.0432	
273.20000	-0.0432	
273.40000	-0.0427	
273.60000	-0.0426	
273.80000	-0.0426	
274.00000	-0.0424	
274.20000	-0.0421	
274.40000	-0.0421	
274.60000	-0.0417	
274.80000	-0.0417	
275.00000	-0.0412	
275.20000	-0.0415	
275.40000	-0.0412	
275.60000	-0.0410	
275.80000	-0.0415	
276.00000	-0.0415	
276.20000	-0.0410	
276.40000	-0.0412	
276.60000	-0.0415	
276.80000	-0.0412	
277.00000	-0.0415	
277.20000	-0.0415	
277.40000	-0.0410	
277.60000	-0.0412	
277.80000	-0.0412	
278.00000	-0.0409	
278.20000	-0.0410	
278.40000	-0.0410	
278.60000	-0.0409	
278.80000	-0.0409	
279.00000	-0.0412	
279.20000	-0.0415	
279.40000	-0.0417	
279.60000	-0.0420	
279.80000	-0.0418	
280.00000	-0.0420	
280.20000	-0.0424	
280.40000	-0.0426	
280.60000	-0.0423	
280.80000	-0.0424	
281.00000	-0.0426	
281.20000	-0.0424	
281.40000	-0.0426	
281.60000	-0.0427	
281.80000	-0.0427	
282.00000	-0.0427	
282.20000	-0.0426	
282.40000	-0.0429	
282.60000	-0.0426	
282.80000	-0.0426	
283.00000	-0.0427	
283.20000	-0.0429	
283.40000	-0.0427	
283.60000	-0.0432	
283.80000	-0.0430	
284.00000	-0.0427	
284.20000	-0.0429	
284.40000	-0.0426	
284.60000	-0.0424	
284.80000	-0.0429	
285.00000	-0.0430	
285.20000	-0.0430	
285.40000	-0.0432	
285.60000	-0.0432	
285.80000	-0.0433	
286.00000	-0.0432	
286.20000	-0.0432	
286.40000	-0.0432	
286.60000	-0.0433	
286.80000	-0.0432	
287.00000	-0.0432	
287.20000	-0.0430	
287.40000	-0.0432	
287.60000	-0.0430	
287.80000	-0.0432	
288.00000	-0.0430	
288.20000	-0.0432	
288.40000	-0.0430	
288.60000	-0.0426	
288.80000	-0.0426	
289.00000	-0.0427	
289.20000	-0.0427	
289.40000	-0.0423	
289.60000	-0.0424	
289.80000	-0.0424	
290.00000	-0.0421	
290.20000	-0.0421	
290.40000	-0.0418	
290.60000	-0.0418	
290.80000	-0.0417	
291.00000	-0.0417	
291.20000	-0.0417	
291.40000	-0.0412	
291.60000	-0.0412	
291.80000	-0.0409	
292.00000	-0.0412	
292.20000	-0.0412	
292.40000	-0.0410	
292.60000	-0.0407	
292.80000	-0.0410	
293.00000	-0.0407	
293.20000	-0.0407	
293.40000	-0.0410	
293.60000	-0.0407	
293.80000	-0.0406	
294.00000	-0.0410	
294.20000	-0.0409	
294.40000	-0.0410	
294.60000	-0.0409	
294.80000	-0.0407	
295.00000	-0.0407	
295.20000	-0.0409	
295.40000	-0.0409	
295.60000	-0.0412	
295.80000	-0.0409	
296.00000	-0.0410	
296.20000	-0.0412	
296.40000	-0.0417	
296.60000	-0.0417	
296.80000	-0.0415	
297.00000	-0.0420	
297.20000	-0.0420	
297.40000	-0.0420	
297.60000	-0.0420	
297.80000	-0.0420	
298.00000	-0.0420	
298.20000	-0.0418	
298.40000	-0.0421	
298.60000	-0.0421	
298.80000	-0.0421	
299.00000	-0.0418	
299.20000	-0.0420	
299.40000	-0.0421	
299.60000	-0.0423	
299.80000	-0.0426	
300.00000	-0.0424	
300.20000	-0.0426	
300.40000	-0.0427	
300.60000	-0.0424	
300.80000	-0.0427	
301.00000	-0.0423	
301.20000	-0.0421	
301.40000	-0.0427	
301.60000	-0.0429	
301.80000	-0.0430	
302.00000	-0.0436	
302.20000	-0.0430	
302.40000	-0.0433	
302.60000	-0.0436	
302.80000	-0.0433	
303.00000	-0.0436	
303.20000	-0.0432	
303.40000	-0.0436	
303.60000	-0.0436	
303.80000	-0.0436	
304.00000	-0.0433	
304.20000	-0.0436	
304.40000	-0.0433	
304.60000	-0.0436	
304.80000	-0.0433	
305.00000	-0.0432	
305.20000	-0.0436	
305.40000	-0.0432	
305.60000	-0.0430	
305.80000	-0.0432	
306.00000	-0.0432	
306.20000	-0.0430	
306.40000	-0.0430	
306.60000	-0.0430	
306.80000	-0.0432	
307.00000	-0.0432	
307.20000	-0.0433	
307.40000	-0.0433	
307.60000	-0.0432	
307.80000	-0.0433	
308.00000	-0.0433	
308.20000	-0.0427	
308.40000	-0.0427	
308.60000	-0.0427	
308.80000	-0.0427	
309.00000	-0.0426	
309.20000	-0.0426	
309.40000	-0.0426	
309.60000	-0.0426	
309.80000	-0.0423	
310.00000	-0.0424	
310.20000	-0.0421	
310.40000	-0.0420	
310.60000	-0.0418	
310.80000	-0.0418	
311.00000	-0.0417	
311.20000	-0.0415	
311.40000	-0.0412	
311.60000	-0.0410	
311.80000	-0.0412	
312.00000	-0.0410	
312.20000	-0.0410	
312.40000	-0.0412	
312.60000	-0.0412	
312.80000	-0.0415	
313.00000	-0.0415	
313.20000	-0.0412	
313.40000	-0.0418	
313.60000	-0.0417	
313.80000	-0.0418	
314.00000	-0.0421	
314.20000	-0.0420	
314.40000	-0.0421	
314.60000	-0.0420	
314.80000	-0.0423	
315.00000	-0.0424	
315.20000	-0.0423	
315.40000	-0.0424	
315.60000	-0.0424	
315.80000	-0.0427	
316.00000	-0.0424	
316.20000	-0.0424	
316.40000	-0.0426	
316.60000	-0.0432	
316.80000	-0.0426	
317.00000	-0.0430	
317.20000	-0.0429	
317.40000	-0.0430	
317.60000	-0.0430	
317.80000	-0.0429	
318.00000	-0.0432	
318.20000	-0.0432	
318.40000	-0.0436	
318.60000	-0.0441	
318.80000	-0.0438	
319.00000	-0.0438	
319.20000	-0.0433	
319.40000	-0.0436	
319.60000	-0.0436	
319.80000	-0.0436	
320.00000	-0.0436	
320.20000	-0.0436	
320.40000	-0.0433	
320.60000	-0.0438	
320.80000	-0.0436	
321.00000	-0.0433	
321.20000	-0.0436	
321.40000	-0.0433	
321.60000	-0.0436	
321.80000	-0.0432	
322.00000	-0.0432	
322.20000	-0.0432	
322.40000	-0.0432	
322.60000	-0.0430	
322.80000	-0.0430	
323.00000	-0.0430	
323.20000	-0.0430	
323.40000	-0.0429	
323.60000	-0.0427	
323.80000	-0.0427	
324.00000	-0.0426	
324.20000	-0.0426	
324.40000	-0.0427	
324.60000	-0.0426	
324.80000	-0.0426	
325.00000	-0.0423	
325.20000	-0.0423	
325.40000	-0.0424	
325.60000	-0.0424	
325.80000	-0.0423	
326.00000	-0.0424	
326.20000	-0.0426	
326.40000	-0.0423	
326.60000	-0.0423	
326.80000	-0.0424	
327.00000	-0.0423	
327.20000	-0.0426	
327.40000	-0.0421	
327.60000	-0.0421	
327.80000	-0.0421	
328.00000	-0.0418	
328.20000	-0.0418	
328.40000	-0.0418	
328.60000	-0.0418	
328.80000	-0.0418	
329.00000	-0.0420	
329.20000	-0.0421	
329.40000	-0.0421	
329.60000	-0.0423	
329.80000	-0.0424	
330.00000	-0.0424	
330.20000	-0.0424	
330.40000	-0.0424	
330.60000	-0.0424	
330.80000	-0.0424	
331.00000	-0.0423	
331.20000	-0.0423	
331.40000	-0.0423	
331.60000	-0.0426	
331.80000	-0.0426	
332.00000	-0.0423	
332.20000	-0.0427	
332.40000	-0.0427	
332.60000	-0.0426	
332.80000	-0.0427	
333.00000	-0.0429	
333.20000	-0.0429	
333.40000	-0.0429	
333.60000	-0.0430	
333.80000	-0.0429	
334.00000	-0.0426	
334.20000	-0.0429	
334.40000	-0.0427	
334.60000	-0.0427	
334.80000	-0.0430	
335.00000	-0.0430	
335.20000	-0.0432	
335.40000	-0.0433	
335.60000	-0.0432	
335.80000	-0.0436	
336.00000	-0.0433	
336.20000	-0.0433	
336.40000	-0.0433	
336.60000	-0.0433	
336.80000	-0.0433	
337.00000	-0.0432	
337.20000	-0.0433	
337.40000	-0.0433	
337.60000	-0.0433	
337.80000	-0.0430	
338.00000	-0.0433	
338.20000	-0.0430	
338.40000	-0.0430	
338.60000	-0.0432	
338.80000	-0.0430	
339.00000	-0.0427	
339.20000	-0.0429	
339.40000	-0.0430	
339.60000	-0.0429	
339.80000	-0.0426	
340.00000	-0.0430	
340.20000	-0.0427	
340.40000	-0.0426	
340.60000	-0.0423	
340.80000	-0.0424	
341.00000	-0.0423	
341.20000	-0.0421	
341.40000	-0.0418	
341.60000	-0.0417	
341.80000	-0.0417	
342.00000	-0.0415	
342.20000	-0.0415	
342.40000	-0.0415	
342.60000	-0.0412	
342.80000	-0.0415	
343.00000	-0.0410	
343.20000	-0.0415	
343.40000	-0.0412	
343.60000	-0.0415	
343.80000	-0.0412	
344.00000	-0.0417	
344.20000	-0.0415	
344.40000	-0.0412	
344.60000	-0.0412	
344.80000	-0.0410	
345.00000	-0.0412	
345.20000	-0.0415	
345.40000	-0.0410	
345.60000	-0.0410	
345.80000	-0.0415	
346.00000	-0.0417	
346.20000	-0.0415	
346.40000	-0.0421	
346.60000	-0.0420	
346.80000	-0.0421	
347.00000	-0.0426	
347.20000	-0.0426	
347.40000	-0.0424	
347.60000	-0.0424	
347.80000	-0.0426	
348.00000	-0.0426	
348.20000	-0.0427	
348.40000	-0.0430	
348.60000	-0.0429	
348.80000	-0.0427	
349.00000	-0.0427	
349.20000	-0.0429	
349.40000	-0.0429	
349.60000	-0.0432	
349.80000	-0.0432	
350.00000	-0.0432	
350.20000	-0.0433	
350.40000	-0.0438	
350.60000	-0.0436	
350.80000	-0.0438	
351.00000	-0.0436	
351.20000	-0.0439	
351.40000	-0.0439	
351.60000	-0.0441	
351.80000	-0.0443	
352.00000	-0.0443	
352.20000	-0.0443	
352.40000	-0.0443	
352.60000	-0.0444	
352.80000	-0.0444	
353.00000	-0.0443	
353.20000	-0.0444	
353.40000	-0.0444	
353.60000	-0.0443	
353.80000	-0.0444	
354.00000	-0.0438	
354.20000	-0.0441	
354.40000	-0.0436	
354.60000	-0.0436	
354.80000	-0.0438	
355.00000	-0.0433	
355.20000	-0.0438	
355.40000	-0.0438	
355.60000	-0.0432	
355.80000	-0.0432	
356.00000	-0.0432	
356.20000	-0.0430	
356.40000	-0.0432	
356.60000	-0.0429	
356.80000	-0.0429	
357.00000	-0.0429	
357.20000	-0.0427	
357.40000	-0.0426	
357.60000	-0.0426	
357.80000	-0.0423	
358.00000	-0.0418	
358.20000	-0.0418	
358.40000	-0.0420	
358.60000	-0.0420	
358.80000	-0.0418	
359.00000	-0.0420	
359.20000	-0.0420	
359.40000	-0.0421	
359.60000	-0.0423	
359.80000	-0.0418	
360.00000	-0.0420	
360.20000	-0.0421	
360.40000	-0.0420	
360.60000	-0.0420	
360.80000	-0.0418	
361.00000	-0.0418	
361.20000	-0.0420	
361.40000	-0.0415	
361.60000	-0.0415	
361.80000	-0.0417	
362.00000	-0.0412	
362.20000	-0.0417	
362.40000	-0.0417	
362.60000	-0.0412	
362.80000	-0.0415	
363.00000	-0.0420	
363.20000	-0.0417	
363.40000	-0.0420	
363.60000	-0.0421	
363.80000	-0.0423	
364.00000	-0.0423	
364.20000	-0.0420	
364.40000	-0.0426	
364.60000	-0.0424	
364.80000	-0.0426	
365.00000	-0.0430	
365.20000	-0.0429	
365.40000	-0.0430	
365.60000	-0.0430	
365.80000	-0.0429	
366.00000	-0.0429	
366.20000	-0.0432	
366.40000	-0.0429	
366.60000	-0.0433	
366.80000	-0.0436	
367.00000	-0.0441	
367.20000	-0.0439	
367.40000	-0.0438	
367.60000	-0.0438	
367.80000	-0.0438	
368.00000	-0.0436	
368.20000	-0.0438	
368.40000	-0.0443	
368.60000	-0.0444	
368.80000	-0.0443	
369.00000	-0.0444	
369.20000	-0.0444	
369.40000	-0.0444	
369.60000	-0.0444	
369.80000	-0.0444	
370.00000	-0.0444	
370.20000	-0.0443	
370.40000	-0.0443	
370.60000	-0.0441	
370.80000	-0.0439	
371.00000	-0.0438	
371.20000	-0.0439	
371.40000	-0.0439	
371.60000	-0.0441	
371.80000	-0.0436	
372.00000	-0.0438	
372.20000	-0.0438	
372.40000	-0.0436	
372.60000	-0.0436	
372.80000	-0.0438	
373.00000	-0.0438	
373.20000	-0.0438	
373.40000	-0.0438	
373.60000	-0.0438	
373.80000	-0.0433	
374.00000	-0.0432	
374.20000	-0.0430	
374.40000	-0.0430	
374.60000	-0.0429	
374.80000	-0.0427	
375.00000	-0.0429	
375.20000	-0.0432	
375.40000	-0.0430	
375.60000	-0.0430	
375.80000	-0.0430	
376.00000	-0.0432	
376.20000	-0.0429	
376.40000	-0.0429	
376.60000	-0.0429	
376.80000	-0.0430	
377.00000	-0.0427	
377.20000	-0.0429	
377.40000	-0.0430	
377.60000	-0.0430	
377.80000	-0.0430	
378.00000	-0.0427	
378.20000	-0.0429	
378.40000	-0.0427	
378.60000	-0.0427	
378.80000	-0.0429	
379.00000	-0.0429	
379.20000	-0.0429	
379.40000	-0.0427	
379.60000	-0.0430	
379.80000	-0.0429	
380.00000	-0.0432	
380.20000	-0.0432	
380.40000	-0.0433	
380.60000	-0.0432	
380.80000	-0.0436	
381.00000	-0.0432	
381.20000	-0.0427	
381.40000	-0.0432	
381.60000	-0.0429	
381.80000	-0.0429	
382.00000	-0.0432	
382.20000	-0.0429	
382.40000	-0.0429	
382.60000	-0.0430	
382.80000	-0.0429	
383.00000	-0.0432	
383.20000	-0.0432	
383.40000	-0.0433	
383.60000	-0.0436	
383.80000	-0.0438	
384.00000	-0.0438	
384.20000	-0.0433	
384.40000	-0.0436	
384.60000	-0.0436	
384.80000	-0.0433	
385.00000	-0.0441	
385.20000	-0.0441	
385.40000	-0.0441	
385.60000	-0.0441	
385.80000	-0.0443	
386.00000	-0.0444	
386.20000	-0.0443	
386.40000	-0.0443	
386.60000	-0.0446	
386.80000	-0.0444	
387.00000	-0.0443	
387.20000	-0.0443	
387.40000	-0.0438	
387.60000	-0.0438	
387.80000	-0.0441	
388.00000	-0.0439	
388.20000	-0.0439	
388.40000	-0.0438	
388.60000	-0.0438	
388.80000	-0.0438	
389.00000	-0.0438	
389.20000	-0.0439	
389.40000	-0.0433	
389.60000	-0.0436	
389.80000	-0.0438	
390.00000	-0.0436	
390.20000	-0.0430	
390.40000	-0.0433	
390.60000	-0.0432	
390.80000	-0.0427	
391.00000	-0.0429	
391.20000	-0.0429	
391.40000	-0.0429	
391.60000	-0.0426	
391.80000	-0.0427	
392.00000	-0.0427	
392.20000	-0.0426	
392.40000	-0.0424	
392.60000	-0.0426	
392.80000	-0.0426	
393.00000	-0.0424	
393.20000	-0.0426	
393.40000	-0.0426	
393.60000	-0.0427	
393.80000	-0.0426	
394.00000	-0.0426	
394.20000	-0.0429	
394.40000	-0.0424	
394.60000	-0.0427	
394.80000	-0.0426	
395.00000	-0.0426	
395.20000	-0.0427	
395.40000	-0.0426	
395.60000	-0.0429	
395.80000	-0.0429	
396.00000	-0.0427	
396.20000	-0.0429	
396.40000	-0.0432	
396.60000	-0.0430	
396.80000	-0.0433	
397.00000	-0.0438	
397.20000	-0.0432	
397.40000	-0.0432	
397.60000	-0.0430	
397.80000	-0.0429	
398.00000	-0.0430	
398.20000	-0.0432	
398.40000	-0.0433	
398.60000	-0.0430	
398.80000	-0.0430	
399.00000	-0.0433	
399.20000	-0.0432	
399.40000	-0.0430	
399.60000	-0.0433	
399.80000	-0.0439	
400.00000	-0.0439	
400.20000	-0.0439	
400.40000	-0.0443	
400.60000	-0.0443	
400.80000	-0.0443	
401.00000	-0.0439	
401.20000	-0.0443	
401.40000	-0.0443	
401.60000	-0.0446	
401.80000	-0.0447	
402.00000	-0.0449	
402.20000	-0.0450	
402.40000	-0.0450	
402.60000	-0.0450	
402.80000	-0.0453	
403.00000	-0.0450	
403.20000	-0.0447	
403.40000	-0.0450	
403.60000	-0.0450	
403.80000	-0.0450	
404.00000	-0.0447	
404.20000	-0.0450	
404.40000	-0.0447	
404.60000	-0.0447	
404.80000	-0.0447	
405.00000	-0.0447	
405.20000	-0.0446	
405.40000	-0.0447	
405.60000	-0.0444	
405.80000	-0.0446	
406.00000	-0.0444	
406.20000	-0.0444	
406.40000	-0.0443	
406.60000	-0.0439	
406.80000	-0.0439	
407.00000	-0.0438	
407.20000	-0.0438	
407.40000	-0.0436	
407.60000	-0.0433	
407.80000	-0.0438	
408.00000	-0.0429	
408.20000	-0.0430	
408.40000	-0.0429	
408.60000	-0.0427	
408.80000	-0.0426	
409.00000	-0.0427	
409.20000	-0.0427	
409.40000	-0.0426	
409.60000	-0.0426	
409.80000	-0.0429	
410.00000	-0.0427	
410.20000	-0.0429	
410.40000	-0.0430	
410.60000	-0.0429	
410.80000	-0.0429	
411.00000	-0.0427	
411.20000	-0.0427	
411.40000	-0.0426	
411.60000	-0.0426	
411.80000	-0.0427	
412.00000	-0.0424	
412.20000	-0.0426	
412.40000	-0.0426	
412.60000	-0.0429	
412.80000	-0.0430	
413.00000	-0.0430	
413.20000	-0.0430	
413.40000	-0.0438	
413.60000	-0.0438	
413.80000	-0.0438	
414.00000	-0.0441	
414.20000	-0.0441	
414.40000	-0.0441	
414.60000	-0.0439	
414.80000	-0.0439	
415.00000	-0.0441	
415.20000	-0.0441	
415.40000	-0.0441	
415.60000	-0.0444	
415.80000	-0.0443	
416.00000	-0.0441	
416.20000	-0.0444	
416.40000	-0.0446	
416.60000	-0.0446	
416.80000	-0.0447	
417.00000	-0.0449	
417.20000	-0.0449	
417.40000	-0.0449	
417.60000	-0.0449	
417.80000	-0.0444	
418.00000	-0.0450	
418.20000	-0.0453	
418.40000	-0.0453	
418.60000	-0.0453	
418.80000	-0.0458	
419.00000	-0.0458	
419.20000	-0.0459	
419.40000	-0.0455	
419.60000	-0.0453	
419.80000	-0.0453	
420.00000	-0.0450	
420.20000	-0.0452	
420.40000	-0.0450	
420.60000	-0.0450	
420.80000	-0.0449	
421.00000	-0.0450	
421.20000	-0.0446	
421.40000	-0.0446	
421.60000	-0.0444	
421.80000	-0.0441	
422.00000	-0.0441	
422.20000	-0.0441	
422.40000	-0.0439	
422.60000	-0.0439	
422.80000	-0.0439	
423.00000	-0.0436	
423.20000	-0.0432	
423.40000	-0.0432	
423.60000	-0.0430	
423.80000	-0.0427	
424.00000	-0.0427	
424.20000	-0.0427	
424.40000	-0.0427	
424.60000	-0.0424	
424.80000	-0.0421	
425.00000	-0.0421	
425.20000	-0.0421	
425.40000	-0.0423	
425.60000	-0.0423	
425.80000	-0.0424	
426.00000	-0.0424	
426.20000	-0.0424	
426.40000	-0.0426	
426.60000	-0.0426	
426.80000	-0.0426	
427.00000	-0.0427	
427.20000	-0.0427	
427.40000	-0.0429	
427.60000	-0.0426	
427.80000	-0.0426	
428.00000	-0.0426	
428.20000	-0.0424	
428.40000	-0.0423	
428.60000	-0.0424	
428.80000	-0.0421	
429.00000	-0.0421	
429.20000	-0.0426	
429.40000	-0.0423	
429.60000	-0.0423	
429.80000	-0.0426	
430.00000	-0.0426	
430.20000	-0.0424	
430.40000	-0.0427	
430.60000	-0.0423	
430.80000	-0.0424	
431.00000	-0.0421	
431.20000	-0.0423	
431.40000	-0.0421	
431.60000	-0.0424	
431.80000	-0.0426	
432.00000	-0.0424	
432.20000	-0.0426	
432.40000	-0.0426	
432.60000	-0.0429	
432.80000	-0.0429	
433.00000	-0.0430	
433.20000	-0.0432	
433.40000	-0.0430	
433.60000	-0.0433	
433.80000	-0.0432	
434.00000	-0.0430	
434.20000	-0.0433	
434.40000	-0.0429	
434.60000	-0.0433	
434.80000	-0.0438	
435.00000	-0.0441	
435.20000	-0.0441	
435.40000	-0.0444	
435.60000	-0.0441	
435.80000	-0.0443	
436.00000	-0.0441	
436.20000	-0.0439	
436.40000	-0.0441	
436.60000	-0.0441	
436.80000	-0.0441	
437.00000	-0.0439	
437.20000	-0.0439	
437.40000	-0.0438	
437.60000	-0.0438	
437.80000	-0.0439	
438.00000	-0.0441	
438.20000	-0.0438	
438.40000	-0.0436	
438.60000	-0.0436	
438.80000	-0.0433	
439.00000	-0.0433	
439.20000	-0.0433	
439.40000	-0.0432	
439.60000	-0.0433	
439.80000	-0.0430	
440.00000	-0.0427	
440.20000	-0.0430	
440.40000	-0.0430	
440.60000	-0.0430	
440.80000	-0.0430	
441.00000	-0.0430	
441.20000	-0.0429	
441.40000	-0.0430	
441.60000	-0.0427	
441.80000	-0.0430	
442.00000	-0.0426	
442.20000	-0.0427	
442.40000	-0.0427	
442.60000	-0.0427	
442.80000	-0.0429	
443.00000	-0.0430	
443.20000	-0.0432	
443.40000	-0.0430	
443.60000	-0.0430	
443.80000	-0.0430	
444.00000	-0.0430	
444.20000	-0.0432	
444.40000	-0.0432	
444.60000	-0.0430	
444.80000	-0.0432	
445.00000	-0.0430	
445.20000	-0.0429	
445.40000	-0.0429	
445.60000	-0.0430	
445.80000	-0.0432	
446.00000	-0.0430	
446.20000	-0.0432	
446.40000	-0.0432	
446.60000	-0.0432	
446.80000	-0.0430	
447.00000	-0.0436	
447.20000	-0.0433	
447.40000	-0.0432	
447.60000	-0.0432	
447.80000	-0.0433	
448.00000	-0.0430	
448.20000	-0.0433	
448.40000	-0.0433	
448.60000	-0.0436	
448.80000	-0.0436	
449.00000	-0.0438	
449.20000	-0.0436	
449.40000	-0.0439	
449.60000	-0.0439	
449.80000	-0.0438	
450.00000	-0.0436	
450.20000	-0.0436	
450.40000	-0.0439	
450.60000	-0.0438	
450.80000	-0.0433	
451.00000	-0.0436	
451.20000	-0.0433	
451.40000	-0.0436	
451.60000	-0.0439	
451.80000	-0.0441	
452.00000	-0.0441	
452.20000	-0.0443	
452.40000	-0.0439	
452.60000	-0.0443	
452.80000	-0.0443	
453.00000	-0.0443	
453.20000	-0.0441	
453.40000	-0.0439	
453.60000	-0.0441	
453.80000	-0.0439	
454.00000	-0.0439	
454.20000	-0.0438	
454.40000	-0.0436	
454.60000	-0.0439	
454.80000	-0.0439	
455.00000	-0.0438	
455.20000	-0.0438	
455.40000	-0.0436	
455.60000	-0.0439	
455.80000	-0.0432	
456.00000	-0.0433	
456.20000	-0.0432	
456.40000	-0.0433	
456.60000	-0.0433	
456.80000	-0.0433	
457.00000	-0.0430	
457.20000	-0.0432	
457.40000	-0.0429	
457.60000	-0.0429	
457.80000	-0.0427	
458.00000	-0.0426	
458.20000	-0.0423	
458.40000	-0.0423	
458.60000	-0.0423	
458.80000	-0.0418	
459.00000	-0.0423	
459.20000	-0.0421	
459.40000	-0.0420	
459.60000	-0.0424	
459.80000	-0.0424	
460.00000	-0.0423	
460.20000	-0.0423	
460.40000	-0.0421	
460.60000	-0.0420	
460.80000	-0.0421	
461.00000	-0.0420	
461.20000	-0.0420	
461.40000	-0.0418	
461.60000	-0.0420	
461.80000	-0.0420	
462.00000	-0.0420	
462.20000	-0.0421	
462.40000	-0.0423	
462.60000	-0.0421	
462.80000	-0.0421	
463.00000	-0.0421	
463.20000	-0.0423	
463.40000	-0.0424	
463.60000	-0.0420	
463.80000	-0.0421	
464.00000	-0.0421	
464.20000	-0.0418	
464.40000	-0.0417	
464.60000	-0.0417	
464.80000	-0.0420	
465.00000	-0.0417	
465.20000	-0.0415	
465.40000	-0.0420	
465.60000	-0.0418	
465.80000	-0.0420	
466.00000	-0.0418	
466.20000	-0.0418	
466.40000	-0.0421	
466.60000	-0.0421	
466.80000	-0.0423	
467.00000	-0.0423	
467.20000	-0.0427	
467.40000	-0.0426	
467.60000	-0.0424	
467.80000	-0.0424	
468.00000	-0.0427	
468.20000	-0.0430	
468.40000	-0.0433	
468.60000	-0.0432	
468.80000	-0.0432	
469.00000	-0.0433	
469.20000	-0.0436	
469.40000	-0.0433	
469.60000	-0.0436	
469.80000	-0.0436	
470.00000	-0.0438	
470.20000	-0.0436	
470.40000	-0.0436	
470.60000	-0.0433	
470.80000	-0.0436	
471.00000	-0.0433	
471.20000	-0.0433	
471.40000	-0.0433	
471.60000	-0.0432	
471.80000	-0.0432	
472.00000	-0.0429	
472.20000	-0.0430	
472.40000	-0.0432	
472.60000	-0.0429	
472.80000	-0.0427	
473.00000	-0.0430	
473.20000	-0.0429	
473.40000	-0.0430	
473.60000	-0.0427	
473.80000	-0.0429	
474.00000	-0.0426	
474.20000	-0.0424	
474.40000	-0.0421	
474.60000	-0.0421	
474.80000	-0.0420	
475.00000	-0.0420	
475.20000	-0.0421	
475.40000	-0.0417	
475.60000	-0.0420	
475.80000	-0.0420	
476.00000	-0.0420	
476.20000	-0.0421	
476.40000	-0.0420	
476.60000	-0.0420	
476.80000	-0.0418	
477.00000	-0.0420	
477.20000	-0.0420	
477.40000	-0.0423	
477.60000	-0.0420	
477.80000	-0.0423	
478.00000	-0.0420	
478.20000	-0.0420	
478.40000	-0.0424	
478.60000	-0.0420	
478.80000	-0.0420	
479.00000	-0.0421	
479.20000	-0.0424	
479.40000	-0.0420	
479.60000	-0.0424	
479.80000	-0.0421	
480.00000	-0.0423	
480.20000	-0.0423	
480.40000	-0.0421	
480.60000	-0.0421	
480.80000	-0.0424	
481.00000	-0.0424	
481.20000	-0.0423	
481.40000	-0.0421	
481.60000	-0.0426	
481.80000	-0.0426	
482.00000	-0.0423	
482.20000	-0.0424	
482.40000	-0.0426	
482.60000	-0.0423	
482.80000	-0.0424	
483.00000	-0.0426	
483.20000	-0.0429	
483.40000	-0.0427	
483.60000	-0.0429	
483.80000	-0.0432	
484.00000	-0.0427	
484.20000	-0.0427	
484.40000	-0.0429	
484.60000	-0.0426	
484.80000	-0.0427	
485.00000	-0.0427	
485.20000	-0.0430	
485.40000	-0.0430	
485.60000	-0.0432	
485.80000	-0.0430	
486.00000	-0.0433	
486.20000	-0.0432	
486.40000	-0.0433	
486.60000	-0.0432	
486.80000	-0.0433	
487.00000	-0.0433	
487.20000	-0.0432	
487.40000	-0.0430	
487.60000	-0.0430	
487.80000	-0.0429	
488.00000	-0.0432	
488.20000	-0.0432	
488.40000	-0.0429	
488.60000	-0.0429	
488.80000	-0.0424	
489.00000	-0.0427	
489.20000	-0.0426	
489.40000	-0.0427	
489.60000	-0.0429	
489.80000	-0.0426	
490.00000	-0.0427	
490.20000	-0.0427	
490.40000	-0.0426	
490.60000	-0.0426	
490.80000	-0.0423	
491.00000	-0.0421	
491.20000	-0.0418	
491.40000	-0.0415	
491.60000	-0.0417	
491.80000	-0.0415	
492.00000	-0.0412	
492.20000	-0.0412	
492.40000	-0.0412	
492.60000	-0.0415	
492.80000	-0.0415	
493.00000	-0.0412	
493.20000	-0.0410	
493.40000	-0.0412	
493.60000	-0.0412	
493.80000	-0.0412	
494.00000	-0.0415	
494.20000	-0.0415	
494.40000	-0.0410	
494.60000	-0.0417	
494.80000	-0.0412	
495.00000	-0.0417	
495.20000	-0.0417	
495.40000	-0.0412	
495.60000	-0.0417	
495.80000	-0.0417	
496.00000	-0.0420	
496.20000	-0.0420	
496.40000	-0.0421	
496.60000	-0.0420	
496.80000	-0.0426	
497.00000	-0.0424	
497.20000	-0.0426	
497.40000	-0.0426	
497.60000	-0.0424	
497.80000	-0.0426	
498.00000	-0.0423	
498.20000	-0.0427	
498.40000	-0.0426	
498.60000	-0.0424	
498.80000	-0.0426	
499.00000	-0.0424	
499.20000	-0.0424	
499.40000	-0.0424	
499.60000	-0.0426	
499.80000	-0.0430	
500.00000	-0.0430	
500.20000	-0.0432	
500.40000	-0.0439	
500.60000	-0.0439	
500.80000	-0.0439	
501.00000	-0.0438	
501.20000	-0.0438	
501.40000	-0.0441	
501.60000	-0.0443	
501.80000	-0.0444	
502.00000	-0.0447	
502.20000	-0.0450	
502.40000	-0.0449	
502.60000	-0.0447	
502.80000	-0.0450	
503.00000	-0.0446	
503.20000	-0.0446	
503.40000	-0.0447	
503.60000	-0.0446	
503.80000	-0.0446	
504.00000	-0.0441	
504.20000	-0.0438	
504.40000	-0.0438	
504.60000	-0.0438	
504.80000	-0.0439	
505.00000	-0.0433	
505.20000	-0.0432	
505.40000	-0.0430	
505.60000	-0.0429	
505.80000	-0.0427	
506.00000	-0.0426	
506.20000	-0.0429	
506.40000	-0.0427	
506.60000	-0.0424	
506.80000	-0.0423	
507.00000	-0.0420	
507.20000	-0.0421	
507.40000	-0.0418	
507.60000	-0.0420	
507.80000	-0.0415	
508.00000	-0.0415	
508.20000	-0.0415	
508.40000	-0.0415	
508.60000	-0.0417	
508.80000	-0.0417	
509.00000	-0.0417	
509.20000	-0.0417	
509.40000	-0.0412	
509.60000	-0.0415	
509.80000	-0.0417	
510.00000	-0.0418	
510.20000	-0.0415	
510.40000	-0.0415	
510.60000	-0.0418	
510.80000	-0.0420	
511.00000	-0.0417	
511.20000	-0.0418	
511.40000	-0.0417	
511.60000	-0.0415	
511.80000	-0.0415	
512.00000	-0.0415	
512.20000	-0.0412	
512.40000	-0.0412	
512.60000	-0.0417	
512.80000	-0.0412	
513.00000	-0.0415	
513.20000	-0.0415	
513.40000	-0.0415	
513.60000	-0.0417	
513.80000	-0.0418	
514.00000	-0.0417	
514.20000	-0.0417	
514.40000	-0.0417	
514.60000	-0.0421	
514.80000	-0.0420	
515.00000	-0.0421	
515.20000	-0.0421	
515.40000	-0.0421	
515.60000	-0.0421	
515.80000	-0.0421	
516.00000	-0.0421	
516.20000	-0.0423	
516.40000	-0.0426	
516.60000	-0.0426	
516.80000	-0.0427	
517.00000	-0.0426	
517.20000	-0.0432	
517.40000	-0.0430	
517.60000	-0.0429	
517.80000	-0.0427	
518.00000	-0.0432	
518.20000	-0.0432	
518.40000	-0.0436	
518.60000	-0.0436	
518.80000	-0.0433	
519.00000	-0.0439	
519.20000	-0.0439	
519.40000	-0.0438	
519.60000	-0.0438	
519.80000	-0.0443	
520.00000	-0.0441	
520.20000	-0.0438	
520.40000	-0.0436	
520.60000	-0.0436	
520.80000	-0.0433	
521.00000	-0.0432	
521.20000	-0.0432	
521.40000	-0.0430	
521.60000	-0.0427	
521.80000	-0.0427	
522.00000	-0.0426	
522.20000	-0.0426	
522.40000	-0.0424	
522.60000	-0.0426	
522.80000	-0.0423	
523.00000	-0.0424	
523.20000	-0.0420	
523.40000	-0.0418	
523.60000	-0.0417	
523.80000	-0.0417	
524.00000	-0.0410	
524.20000	-0.0407	
524.40000	-0.0410	
524.60000	-0.0409	
524.80000	-0.0406	
525.00000	-0.0407	
525.20000	-0.0406	
525.40000	-0.0406	
525.60000	-0.0404	
525.80000	-0.0403	
526.00000	-0.0403	
526.20000	-0.0404	
526.40000	-0.0403	
526.60000	-0.0403	
526.80000	-0.0404	
527.00000	-0.0403	
527.20000	-0.0404	
527.40000	-0.0406	
527.60000	-0.0403	
527.80000	-0.0404	
528.00000	-0.0403	
528.20000	-0.0403	
528.40000	-0.0406	
528.60000	-0.0407	
528.80000	-0.0404	
529.00000	-0.0407	
529.20000	-0.0409	
529.40000	-0.0409	
529.60000	-0.0412	
529.80000	-0.0412	
530.00000	-0.0418	
530.20000	-0.0418	
530.40000	-0.0421	
530.60000	-0.0418	
530.80000	-0.0424	
531.00000	-0.0424	
531.20000	-0.0423	
531.40000	-0.0424	
531.60000	-0.0426	
531.80000	-0.0424	
532.00000	-0.0423	
532.20000	-0.0426	
532.40000	-0.0424	
532.60000	-0.0423	
532.80000	-0.0426	
533.00000	-0.0427	
533.20000	-0.0427	
533.40000	-0.0427	
533.60000	-0.0427	
533.80000	-0.0430	
534.00000	-0.0429	
534.20000	-0.0427	
534.40000	-0.0426	
534.60000	-0.0427	
534.80000	-0.0429	
535.00000	-0.0432	
535.20000	-0.0430	
535.40000	-0.0432	
535.60000	-0.0432	
535.80000	-0.0433	
536.00000	-0.0432	
536.20000	-0.0433	
536.40000	-0.0430	
536.60000	-0.0429	
536.80000	-0.0429	
537.00000	-0.0427	
537.20000	-0.0426	
537.40000	-0.0429	
537.60000	-0.0430	
537.80000	-0.0429	
538.00000	-0.0429	
538.20000	-0.0427	
538.40000	-0.0427	
538.60000	-0.0426	
538.80000	-0.0426	
539.00000	-0.0424	
539.20000	-0.0424	
539.40000	-0.0421	
539.60000	-0.0423	
539.80000	-0.0420	
540.00000	-0.0418	
540.20000	-0.0418	
540.40000	-0.0417	
540.60000	-0.0415	
540.80000	-0.0410	
541.00000	-0.0410	
541.20000	-0.0407	
541.40000	-0.0406	
541.60000	-0.0406	
541.80000	-0.0406	
542.00000	-0.0404	
542.20000	-0.0406	
542.40000	-0.0406	
542.60000	-0.0401	
542.80000	-0.0404	
543.00000	-0.0404	
543.20000	-0.0404	
543.40000	-0.0403	
543.60000	-0.0400	
543.80000	-0.0400	
544.00000	-0.0397	
544.20000	-0.0397	
544.40000	-0.0397	
544.60000	-0.0394	
544.80000	-0.0385	
545.00000	-0.0386	
545.20000	-0.0378	
545.40000	-0.0375	
545.60000	-0.0368	
545.80000	-0.0363	
546.00000	-0.0357	
546.20000	-0.0352	
546.40000	-0.0346	
546.60000	-0.0342	
546.80000	-0.0336	
547.00000	-0.0327	
547.20000	-0.0317	
547.40000	-0.0311	
547.60000	-0.0302	
547.80000	-0.0293	
548.00000	-0.0288	
548.20000	-0.0282	
548.40000	-0.0276	
548.60000	-0.0270	
548.80000	-0.0267	
549.00000	-0.0258	
549.20000	-0.0255	
549.40000	-0.0250	
549.60000	-0.0247	
549.80000	-0.0243	
550.00000	-0.0235	
550.20000	-0.0229	
550.40000	-0.0224	
550.60000	-0.0214	
550.80000	-0.0203	
551.00000	-0.0191	
551.20000	-0.0185	
551.40000	-0.0182	
551.60000	-0.0169	
551.80000	-0.0165	
552.00000	-0.0153	
552.20000	-0.0143	
552.40000	-0.0133	
552.60000	-0.0124	
552.80000	-0.0105	
553.00000	-0.0092	
553.20000	-0.0070	
553.40000	-0.0055	
553.60000	-0.0034	
553.80000	-0.0014	
554.00000	 0.0006	
554.20000	 0.0034	
554.40000	 0.0060	
554.60000	 0.0090	
554.80000	 0.0124	
555.00000	 0.0166	
555.20000	 0.0209	
555.40000	 0.0267	
555.60000	 0.0325	
555.80000	 0.0395	
556.00000	 0.0470	
556.20000	 0.0551	
556.40000	 0.0648	
556.60000	 0.0746	
556.80000	 0.0850	
557.00000	 0.0960	
557.20000	 0.1071	
557.40000	 0.1184	
557.60000	 0.1292	
557.80000	 0.1399	
558.00000	 0.1508	
558.20000	 0.1607	
558.40000	 0.1700	
558.60000	 0.1787	
558.80000	 0.1866	
559.00000	 0.1939	
559.20000	 0.2000	
559.40000	 0.2055	
559.60000	 0.2098	
559.80000	 0.2127	
560.00000	 0.2147	
560.20000	 0.2161	
560.40000	 0.2162	
560.60000	 0.2151	
560.80000	 0.2135	
561.00000	 0.2104	
561.20000	 0.2072	
561.40000	 0.2029	
561.60000	 0.1982	
561.80000	 0.1930	
562.00000	 0.1874	
562.20000	 0.1816	
562.40000	 0.1749	
562.60000	 0.1686	
562.80000	 0.1622	
563.00000	 0.1550	
563.20000	 0.1488	
563.40000	 0.1419	
563.60000	 0.1355	
563.80000	 0.1294	
564.00000	 0.1234	
564.20000	 0.1180	
564.40000	 0.1126	
564.60000	 0.1080	
564.80000	 0.1038	
565.00000	 0.0992	
565.20000	 0.0952	
565.40000	 0.0911	
565.60000	 0.0876	
565.80000	 0.0844	
566.00000	 0.0810	
566.20000	 0.0783	
566.40000	 0.0754	
566.60000	 0.0731	
566.80000	 0.0714	
567.00000	 0.0696	
567.20000	 0.0677	
567.40000	 0.0670	
567.60000	 0.0662	
567.80000	 0.0658	
568.00000	 0.0653	
568.20000	 0.0653	
568.40000	 0.0656	
568.60000	 0.0661	
568.80000	 0.0671	
569.00000	 0.0677	
569.20000	 0.0693	
569.40000	 0.0703	
569.60000	 0.0719	
569.80000	 0.0732	
570.00000	 0.0745	
570.20000	 0.0763	
570.40000	 0.0778	
570.60000	 0.0792	
570.80000	 0.0810	
571.00000	 0.0829	
571.20000	 0.0844	
571.40000	 0.0854	
571.60000	 0.0868	
571.80000	 0.0880	
572.00000	 0.0888	
572.20000	 0.0897	
572.40000	 0.0905	
572.60000	 0.0909	
572.80000	 0.0914	
573.00000	 0.0917	
573.20000	 0.0923	
573.40000	 0.0931	
573.60000	 0.0934	
573.80000	 0.0938	
574.00000	 0.0949	
574.20000	 0.0952	
574.40000	 0.0960	
574.60000	 0.0972	
574.80000	 0.0978	
575.00000	 0.0986	
575.20000	 0.0989	
575.40000	 0.0992	
575.60000	 0.0996	
575.80000	 0.0995	
576.00000	 0.0992	
576.20000	 0.0983	
576.40000	 0.0978	
576.60000	 0.0966	
576.80000	 0.0954	
577.00000	 0.0935	
577.20000	 0.0917	
577.40000	 0.0896	
577.60000	 0.0871	
577.80000	 0.0848	
578.00000	 0.0818	
578.20000	 0.0786	
578.40000	 0.0748	
578.60000	 0.0711	
578.80000	 0.0670	
579.00000	 0.0618	
579.20000	 0.0565	
579.40000	 0.0510	
579.60000	 0.0453	
579.80000	 0.0395	
580.00000	 0.0331	
580.20000	 0.0269	
580.40000	 0.0204	
580.60000	 0.0145	
580.80000	 0.0082	
581.00000	 0.0027	
581.20000	-0.0026	
581.40000	-0.0084	
581.60000	-0.0134	
581.80000	-0.0188	
582.00000	-0.0238	
582.20000	-0.0285	
582.40000	-0.0333	
582.60000	-0.0375	
582.80000	-0.0418	
583.00000	-0.0458	
583.20000	-0.0500	
583.40000	-0.0536	
583.60000	-0.0575	
583.80000	-0.0615	
584.00000	-0.0645	
584.20000	-0.0679	
584.40000	-0.0710	
584.60000	-0.0742	
584.80000	-0.0768	
585.00000	-0.0798	
585.20000	-0.0819	
585.40000	-0.0841	
585.60000	-0.0858	
585.80000	-0.0870	
586.00000	-0.0883	
586.20000	-0.0893	
586.40000	-0.0899	
586.60000	-0.0906	
586.80000	-0.0906	
587.00000	-0.0906	
587.20000	-0.0900	
587.40000	-0.0903	
587.60000	-0.0899	
587.80000	-0.0896	
588.00000	-0.0893	
588.20000	-0.0891	
588.40000	-0.0888	
588.60000	-0.0883	
588.80000	-0.0883	
589.00000	-0.0882	
589.20000	-0.0877	
589.40000	-0.0882	
589.60000	-0.0879	
589.80000	-0.0879	
590.00000	-0.0882	
590.20000	-0.0882	
590.40000	-0.0888	
590.60000	-0.0888	
590.80000	-0.0893	
591.00000	-0.0900	
591.20000	-0.0905	
591.40000	-0.0911	
591.60000	-0.0920	
591.80000	-0.0929	
592.00000	-0.0946	
592.20000	-0.0955	
592.40000	-0.0964	
592.60000	-0.0980	
592.80000	-0.0995	
593.00000	-0.1009	
593.20000	-0.1019	
593.40000	-0.1033	
593.60000	-0.1044	
593.80000	-0.1054	
594.00000	-0.1065	
594.20000	-0.1077	
594.40000	-0.1088	
594.60000	-0.1096	
594.80000	-0.1099	
595.00000	-0.1109	
595.20000	-0.1118	
595.40000	-0.1122	
595.60000	-0.1129	
595.80000	-0.1132	
596.00000	-0.1138	
596.20000	-0.1143	
596.40000	-0.1141	
596.60000	-0.1144	
596.80000	-0.1147	
597.00000	-0.1147	
597.20000	-0.1151	
597.40000	-0.1151	
597.60000	-0.1155	
597.80000	-0.1152	
598.00000	-0.1158	
598.20000	-0.1158	
598.40000	-0.1161	
598.60000	-0.1164	
598.80000	-0.1166	
599.00000	-0.1167	
599.20000	-0.1169	
599.40000	-0.1173	
599.60000	-0.1173	
599.80000	-0.1180	
600.00000	-0.1184	
600.20000	-0.1186	
600.40000	-0.1190	
600.60000	-0.1192	
600.80000	-0.1193	
601.00000	-0.1195	
601.20000	-0.1196	
601.40000	-0.1201	
601.60000	-0.1202	
601.80000	-0.1205	
602.00000	-0.1202	
602.20000	-0.1201	
602.40000	-0.1202	
602.60000	-0.1202	
602.80000	-0.1201	
603.00000	-0.1199	
603.20000	-0.1201	
603.40000	-0.1202	
603.60000	-0.1196	
603.80000	-0.1199	
604.00000	-0.1201	
604.20000	-0.1202	
604.40000	-0.1205	
604.60000	-0.1207	
604.80000	-0.1212	
605.00000	-0.1213	
605.20000	-0.1213	
605.40000	-0.1221	
605.60000	-0.1221	
605.80000	-0.1228	
606.00000	-0.1228	
606.20000	-0.1233	
606.40000	-0.1234	
606.60000	-0.1234	
606.80000	-0.1236	
607.00000	-0.1236	
607.20000	-0.1236	
607.40000	-0.1236	
607.60000	-0.1233	
607.80000	-0.1233	
608.00000	-0.1228	
608.20000	-0.1224	
608.40000	-0.1222	
608.60000	-0.1221	
608.80000	-0.1215	
609.00000	-0.1213	
609.20000	-0.1207	
609.40000	-0.1201	
609.60000	-0.1195	
609.80000	-0.1187	
610.00000	-0.1184	
610.20000	-0.1176	
610.40000	-0.1170	
610.60000	-0.1164	
610.80000	-0.1160	
611.00000	-0.1155	
611.20000	-0.1152	
611.40000	-0.1144	
611.60000	-0.1144	
611.80000	-0.1140	
612.00000	-0.1134	
612.20000	-0.1137	
612.40000	-0.1129	
612.60000	-0.1126	
612.80000	-0.1120	
613.00000	-0.1122	
613.20000	-0.1120	
613.40000	-0.1117	
613.60000	-0.1117	
613.80000	-0.1111	
614.00000	-0.1109	
614.20000	-0.1109	
614.40000	-0.1106	
614.60000	-0.1103	
614.80000	-0.1103	
615.00000	-0.1099	
615.20000	-0.1096	
615.40000	-0.1096	
615.60000	-0.1094	
615.80000	-0.1089	
616.00000	-0.1089	
616.20000	-0.1091	
616.40000	-0.1088	
616.60000	-0.1091	
616.80000	-0.1091	
617.00000	-0.1091	
617.20000	-0.1096	
617.40000	-0.1096	
617.60000	-0.1096	
617.80000	-0.1097	
618.00000	-0.1099	
618.20000	-0.1102	
618.40000	-0.1103	
618.60000	-0.1103	
618.80000	-0.1103	
619.00000	-0.1103	
619.20000	-0.1106	
619.40000	-0.1103	
619.60000	-0.1105	
619.80000	-0.1103	
620.00000	-0.1100	
620.20000	-0.1102	
620.40000	-0.1103	
620.60000	-0.1099	
620.80000	-0.1102	
621.00000	-0.1100	
621.20000	-0.1102	
621.40000	-0.1102	
621.60000	-0.1102	
621.80000	-0.1102	
622.00000	-0.1103	
622.20000	-0.1103	
622.40000	-0.1106	
622.60000	-0.1106	
622.80000	-0.1109	
623.00000	-0.1109	
623.20000	-0.1111	
623.40000	-0.1109	
623.60000	-0.1111	
623.80000	-0.1109	
624.00000	-0.1111	
624.20000	-0.1112	
624.40000	-0.1111	
624.60000	-0.1109	
624.80000	-0.1109	
625.00000	-0.1112	
625.20000	-0.1111	
625.40000	-0.1115	
625.60000	-0.1117	
625.80000	-0.1118	
626.00000	-0.1122	
626.20000	-0.1125	
626.40000	-0.1123	
626.60000	-0.1126	
626.80000	-0.1126	
627.00000	-0.1128	
627.20000	-0.1129	
627.40000	-0.1129	
627.60000	-0.1131	
627.80000	-0.1132	
628.00000	-0.1134	
628.20000	-0.1134	
628.40000	-0.1137	
628.60000	-0.1138	
628.80000	-0.1137	
629.00000	-0.1134	
629.20000	-0.1137	
629.40000	-0.1131	
629.60000	-0.1132	
629.80000	-0.1132	
630.00000	-0.1131	
630.20000	-0.1128	
630.40000	-0.1125	
630.60000	-0.1122	
630.80000	-0.1120	
631.00000	-0.1118	
631.20000	-0.1111	
631.40000	-0.1108	
631.60000	-0.1105	
631.80000	-0.1102	
632.00000	-0.1102	
632.20000	-0.1102	
632.40000	-0.1099	
632.60000	-0.1096	
632.80000	-0.1091	
633.00000	-0.1094	
633.20000	-0.1089	
633.40000	-0.1091	
633.60000	-0.1091	
633.80000	-0.1094	
634.00000	-0.1099	
634.20000	-0.1097	
634.40000	-0.1096	
634.60000	-0.1100	
634.80000	-0.1100	
635.00000	-0.1103	
635.20000	-0.1102	
635.40000	-0.1102	
635.60000	-0.1102	
635.80000	-0.1100	
636.00000	-0.1099	
636.20000	-0.1097	
636.40000	-0.1096	
636.60000	-0.1091	
636.80000	-0.1089	
637.00000	-0.1085	
637.20000	-0.1083	
637.40000	-0.1077	
637.60000	-0.1076	
637.80000	-0.1070	
638.00000	-0.1070	
638.20000	-0.1062	
638.40000	-0.1064	
638.60000	-0.1059	
638.80000	-0.1053	
639.00000	-0.1048	
639.20000	-0.1047	
639.40000	-0.1045	
639.60000	-0.1047	
639.80000	-0.1044	
640.00000	-0.1039	
640.20000	-0.1033	
640.40000	-0.1030	
640.60000	-0.1025	
640.80000	-0.1022	
641.00000	-0.1018	
641.20000	-0.1012	
641.40000	-0.1006	
641.60000	-0.1001	
641.80000	-0.0998	
642.00000	-0.0995	
642.20000	-0.0992	
642.40000	-0.0989	
642.60000	-0.0987	
642.80000	-0.0977	
643.00000	-0.0977	
643.20000	-0.0972	
643.40000	-0.0967	
643.60000	-0.0958	
643.80000	-0.0957	
644.00000	-0.0952	
644.20000	-0.0951	
644.40000	-0.0946	
644.60000	-0.0941	
644.80000	-0.0935	
645.00000	-0.0934	
645.20000	-0.0928	
645.40000	-0.0920	
645.60000	-0.0919	
645.80000	-0.0916	
646.00000	-0.0912	
646.20000	-0.0906	
646.40000	-0.0903	
646.60000	-0.0899	
646.80000	-0.0896	
647.00000	-0.0893	
647.20000	-0.0888	
647.40000	-0.0887	
647.60000	-0.0877	
647.80000	-0.0871	
648.00000	-0.0870	
648.20000	-0.0867	
648.40000	-0.0864	
648.60000	-0.0858	
648.80000	-0.0853	
649.00000	-0.0850	
649.20000	-0.0845	
649.40000	-0.0841	
649.60000	-0.0839	
649.80000	-0.0835	
650.00000	-0.0832	
650.20000	-0.0830	
650.40000	-0.0829	
650.60000	-0.0826	
650.80000	-0.0824	
651.00000	-0.0819	
651.20000	-0.0819	
651.40000	-0.0815	
651.60000	-0.0813	
651.80000	-0.0812	
652.00000	-0.0809	
652.20000	-0.0806	
652.40000	-0.0807	
652.60000	-0.0803	
652.80000	-0.0798	
653.00000	-0.0797	
653.20000	-0.0789	
653.40000	-0.0786	
653.60000	-0.0784	
653.80000	-0.0778	
654.00000	-0.0771	
654.20000	-0.0768	
654.40000	-0.0764	
654.60000	-0.0758	
654.80000	-0.0751	
655.00000	-0.0746	
655.20000	-0.0740	
655.40000	-0.0735	
655.60000	-0.0731	
655.80000	-0.0728	
656.00000	-0.0722	
656.20000	-0.0723	
656.40000	-0.0716	
656.60000	-0.0713	
656.80000	-0.0708	
657.00000	-0.0705	
657.20000	-0.0696	
657.40000	-0.0691	
657.60000	-0.0685	
657.80000	-0.0679	
658.00000	-0.0671	
658.20000	-0.0665	
658.40000	-0.0664	
658.60000	-0.0659	
658.80000	-0.0652	
659.00000	-0.0650	
659.20000	-0.0642	
659.40000	-0.0641	
659.60000	-0.0636	
659.80000	-0.0632	
660.00000	-0.0627	
660.20000	-0.0620	
660.40000	-0.0620	
660.60000	-0.0615	
660.80000	-0.0612	
661.00000	-0.0609	
661.20000	-0.0603	
661.40000	-0.0600	
661.60000	-0.0597	
661.80000	-0.0594	
662.00000	-0.0591	
662.20000	-0.0587	
662.40000	-0.0581	
662.60000	-0.0578	
662.80000	-0.0578	
663.00000	-0.0577	
663.20000	-0.0574	
663.40000	-0.0571	
663.60000	-0.0571	
663.80000	-0.0568	
664.00000	-0.0565	
664.20000	-0.0558	
664.40000	-0.0558	
664.60000	-0.0551	
664.80000	-0.0551	
665.00000	-0.0548	
665.20000	-0.0545	
665.40000	-0.0540	
665.60000	-0.0537	
665.80000	-0.0534	
666.00000	-0.0529	
666.20000	-0.0531	
666.40000	-0.0525	
666.60000	-0.0528	
666.80000	-0.0523	
667.00000	-0.0519	
667.20000	-0.0522	
667.40000	-0.0517	
667.60000	-0.0513	
667.80000	-0.0507	
668.00000	-0.0507	
668.20000	-0.0505	
668.40000	-0.0504	
668.60000	-0.0497	
668.80000	-0.0494	
669.00000	-0.0490	
669.20000	-0.0488	
669.40000	-0.0484	
669.60000	-0.0476	
669.80000	-0.0481	
670.00000	-0.0471	
670.20000	-0.0467	
670.40000	-0.0462	
670.60000	-0.0459	
670.80000	-0.0453	
671.00000	-0.0449	
671.20000	-0.0447	
671.40000	-0.0446	
671.60000	-0.0441	
671.80000	-0.0438	
672.00000	-0.0432	
672.20000	-0.0429	
672.40000	-0.0426	
672.60000	-0.0426	
672.80000	-0.0424	
673.00000	-0.0426	
673.20000	-0.0417	
673.40000	-0.0415	
673.60000	-0.0415	
673.80000	-0.0407	
674.00000	-0.0403	
674.20000	-0.0401	
674.40000	-0.0398	
674.60000	-0.0394	
674.80000	-0.0388	
675.00000	-0.0388	
675.20000	-0.0388	
675.40000	-0.0386	
675.60000	-0.0380	
675.80000	-0.0378	
676.00000	-0.0377	
676.20000	-0.0375	
676.40000	-0.0374	
676.60000	-0.0366	
676.80000	-0.0366	
677.00000	-0.0362	
677.20000	-0.0360	
677.40000	-0.0360	
677.60000	-0.0354	
677.80000	-0.0352	
678.00000	-0.0345	
678.20000	-0.0342	
678.40000	-0.0339	
678.60000	-0.0336	
678.80000	-0.0334	
679.00000	-0.0333	
679.20000	-0.0331	
679.40000	-0.0327	
679.60000	-0.0327	
679.80000	-0.0323	
680.00000	-0.0323	
680.20000	-0.0320	
680.40000	-0.0322	
680.60000	-0.0323	
680.80000	-0.0319	
681.00000	-0.0320	
681.20000	-0.0322	
681.40000	-0.0322	
681.60000	-0.0322	
681.80000	-0.0325	
682.00000	-0.0327	
682.20000	-0.0323	
682.40000	-0.0327	
682.60000	-0.0328	
682.80000	-0.0328	
683.00000	-0.0333	
683.20000	-0.0336	
683.40000	-0.0339	
683.60000	-0.0340	
683.80000	-0.0340	
684.00000	-0.0346	
684.20000	-0.0346	
684.40000	-0.0346	
684.60000	-0.0348	
684.80000	-0.0348	
685.00000	-0.0352	
685.20000	-0.0357	
685.40000	-0.0357	
685.60000	-0.0356	
685.80000	-0.0356	
686.00000	-0.0359	
686.20000	-0.0359	
686.40000	-0.0359	
686.60000	-0.0359	
686.80000	-0.0356	
687.00000	-0.0357	
687.20000	-0.0352	
687.40000	-0.0354	
687.60000	-0.0352	
687.80000	-0.0352	
688.00000	-0.0349	
688.20000	-0.0348	
688.40000	-0.0348	
688.60000	-0.0345	
688.80000	-0.0348	
689.00000	-0.0348	
689.20000	-0.0346	
689.40000	-0.0343	
689.60000	-0.0342	
689.80000	-0.0343	
690.00000	-0.0340	
690.20000	-0.0339	
690.40000	-0.0337	
690.60000	-0.0336	
690.80000	-0.0333	
691.00000	-0.0328	
691.20000	-0.0327	
691.40000	-0.0325	
691.60000	-0.0325	
691.80000	-0.0325	
692.00000	-0.0323	
692.20000	-0.0322	
692.40000	-0.0320	
692.60000	-0.0317	
692.80000	-0.0319	
693.00000	-0.0316	
693.20000	-0.0311	
693.40000	-0.0313	
693.60000	-0.0310	
693.80000	-0.0310	
694.00000	-0.0305	
694.20000	-0.0311	
694.40000	-0.0310	
694.60000	-0.0305	
694.80000	-0.0305	
695.00000	-0.0305	
695.20000	-0.0305	
695.40000	-0.0304	
695.60000	-0.0307	
695.80000	-0.0305	
696.00000	-0.0307	
696.20000	-0.0311	
696.40000	-0.0313	
696.60000	-0.0314	
696.80000	-0.0317	
697.00000	-0.0317	
697.20000	-0.0320	
697.40000	-0.0319	
697.60000	-0.0322	
697.80000	-0.0320	
698.00000	-0.0322	
698.20000	-0.0323	
698.40000	-0.0327	
698.60000	-0.0325	
698.80000	-0.0327	
699.00000	-0.0328	
699.20000	-0.0331	
699.40000	-0.0331	
699.60000	-0.0334	
699.80000	-0.0336	
700.00000	-0.0340	
700.20000	-0.0340	
700.40000	-0.0342	
700.60000	-0.0345	
700.80000	-0.0346	
701.00000	-0.0349	
701.20000	-0.0352	
701.40000	-0.0349	
701.60000	-0.0357	
701.80000	-0.0357	
702.00000	-0.0360	
702.20000	-0.0359	
702.40000	-0.0360	
702.60000	-0.0360	
702.80000	-0.0359	
703.00000	-0.0356	
703.20000	-0.0348	
703.40000	-0.0345	
703.60000	-0.0340	
703.80000	-0.0334	
704.00000	-0.0325	
704.20000	-0.0316	
704.40000	-0.0310	
704.60000	-0.0304	
704.80000	-0.0294	
705.00000	-0.0284	
705.20000	-0.0276	
705.40000	-0.0272	
705.60000	-0.0264	
705.80000	-0.0255	
706.00000	-0.0246	
706.20000	-0.0235	
706.40000	-0.0229	
706.60000	-0.0214	
706.80000	-0.0200	
707.00000	-0.0183	
707.20000	-0.0165	
707.40000	-0.0148	
707.60000	-0.0130	
707.80000	-0.0108	
708.00000	-0.0089	
708.20000	-0.0067	
708.40000	-0.0040	
708.60000	-0.0014	
708.80000	 0.0017	
709.00000	 0.0055	
709.20000	 0.0092	
709.40000	 0.0128	
709.60000	 0.0177	
709.80000	 0.0220	
710.00000	 0.0272	
710.20000	 0.0322	
710.40000	 0.0377	
710.60000	 0.0432	
710.80000	 0.0491	
711.00000	 0.0554	
711.20000	 0.0620	
711.40000	 0.0690	
711.60000	 0.0761	
711.80000	 0.0838	
712.00000	 0.0914	
712.20000	 0.0995	
712.40000	 0.1077	
712.60000	 0.1163	
712.80000	 0.1251	
713.00000	 0.1346	
713.20000	 0.1440	
713.40000	 0.1538	
713.60000	 0.1637	
713.80000	 0.1741	
714.00000	 0.1845	
714.20000	 0.1945	
714.40000	 0.2049	
714.60000	 0.2145	
714.80000	 0.2252	
715.00000	 0.2353	
715.20000	 0.2454	
715.40000	 0.2550	
715.60000	 0.2647	
715.80000	 0.2740	
716.00000	 0.2826	
716.20000	 0.2907	
716.40000	 0.2980	
716.60000	 0.3047	
716.80000	 0.3098	
717.00000	 0.3143	
717.20000	 0.3172	
717.40000	 0.3195	
717.60000	 0.3207	
717.80000	 0.3209	
718.00000	 0.3197	
718.20000	 0.3169	
718.40000	 0.3113	
718.60000	 0.3029	
718.80000	 0.2905	
719.00000	 0.2742	
719.20000	 0.2541	
719.40000	 0.2298	
719.60000	 0.2007	
719.80000	 0.1665	
720.00000	 0.1262	
720.20000	 0.0807	
720.40000	 0.0293	
720.60000	-0.0282	
720.80000	-0.0919	
721.00000	-0.1602	
721.20000	-0.2318	
721.40000	-0.3050	
721.60000	-0.3789	
721.80000	-0.4536	
722.00000	-0.5273	
722.20000	-0.6009	
722.40000	-0.6740	
722.60000	-0.7460	
722.80000	-0.8177	
723.00000	-0.8887	
723.20000	-0.9587	
723.40000	-1.0281	
723.60000	-1.0962	
723.80000	-1.1627	
724.00000	-1.2263	
724.20000	-1.2863	
724.40000	-1.3408	
724.60000	-1.3890	
724.80000	-1.4301	
725.00000	-1.4638	
725.20000	-1.4896	
725.40000	-1.5085	
725.60000	-1.5208	
725.80000	-1.5269	
726.00000	-1.5280	
726.20000	-1.5231	
726.40000	-1.5141	
726.60000	-1.5013	
726.80000	-1.4842	
727.00000	-1.4641	
727.20000	-1.4415	
727.40000	-1.4163	
727.60000	-1.3889	
727.80000	-1.3585	
728.00000	-1.3263	
728.20000	-1.2918	
728.40000	-1.2550	
728.60000	-1.2169	
728.80000	-1.1777	
729.00000	-1.1374	
729.20000	-1.0968	
729.40000	-1.0562	
729.60000	-1.0161	
729.80000	-0.9767	
730.00000	-0.9387	
730.20000	-0.9021	
730.40000	-0.8675	
730.60000	-0.8353	
730.80000	-0.8057	
731.00000	-0.7788	
731.20000	-0.7549	
731.40000	-0.7335	
731.60000	-0.7144	
731.80000	-0.6979	
732.00000	-0.6831	
732.20000	-0.6706	
732.40000	-0.6592	
732.60000	-0.6493	
732.80000	-0.6396	
733.00000	-0.6299	
733.20000	-0.6198	
733.40000	-0.6093	
733.60000	-0.5983	
733.80000	-0.5859	
734.00000	-0.5730	
734.20000	-0.5591	
734.40000	-0.5438	
734.60000	-0.5281	
734.80000	-0.5113	
735.00000	-0.4938	
735.20000	-0.4753	
735.40000	-0.4562	
735.60000	-0.4372	
735.80000	-0.4176	
736.00000	-0.3975	
736.20000	-0.3775	
736.40000	-0.3577	
736.60000	-0.3372	
736.80000	-0.3172	
737.00000	-0.2972	
737.20000	-0.2765	
737.40000	-0.2562	
737.60000	-0.2354	
737.80000	-0.2151	
738.00000	-0.1947	
738.20000	-0.1743	
738.40000	-0.1546	
738.60000	-0.1352	
738.80000	-0.1158	
739.00000	-0.0967	
739.20000	-0.0784	
739.40000	-0.0609	
739.60000	-0.0436	
739.80000	-0.0262	
740.00000	-0.0098	
740.20000	 0.0061	
740.40000	 0.0214	
740.60000	 0.0363	
740.80000	 0.0508	
741.00000	 0.0650	
741.20000	 0.0787	
741.40000	 0.0923	
741.60000	 0.1051	
741.80000	 0.1176	
742.00000	 0.1297	
742.20000	 0.1414	
742.40000	 0.1524	
742.60000	 0.1634	
742.80000	 0.1735	
743.00000	 0.1834	
743.20000	 0.1927	
743.40000	 0.2014	
743.60000	 0.2104	
743.80000	 0.2188	
744.00000	 0.2271	
744.20000	 0.2353	
744.40000	 0.2432	
744.60000	 0.2521	
744.80000	 0.2603	
745.00000	 0.2689	
745.20000	 0.2774	
745.40000	 0.2858	
745.60000	 0.2943	
745.80000	 0.3029	
746.00000	 0.3114	
746.20000	 0.3204	
746.40000	 0.3293	
746.60000	 0.3386	
746.80000	 0.3473	
747.00000	 0.3560	
747.20000	 0.3645	
747.40000	 0.3731	
747.60000	 0.3815	
747.80000	 0.3894	
748.00000	 0.3972	
748.20000	 0.4045	
748.40000	 0.4117	
748.60000	 0.4184	
748.80000	 0.4248	
749.00000	 0.4311	
749.20000	 0.4369	
749.40000	 0.4417	
749.60000	 0.4468	
749.80000	 0.4514	
750.00000	 0.4555	
750.20000	 0.4597	
750.40000	 0.4634	
750.60000	 0.4668	
750.80000	 0.4701	
751.00000	 0.4735	
751.20000	 0.4765	
751.40000	 0.4793	
751.60000	 0.4817	
751.80000	 0.4845	
752.00000	 0.4868	
752.20000	 0.4890	
752.40000	 0.4912	
752.60000	 0.4935	
752.80000	 0.4953	
753.00000	 0.4973	
753.20000	 0.4988	
753.40000	 0.5005	
753.60000	 0.5022	
753.80000	 0.5045	
754.00000	 0.5063	
754.20000	 0.5081	
754.40000	 0.5101	
754.60000	 0.5121	
754.80000	 0.5142	
755.00000	 0.5164	
755.20000	 0.5190	
755.40000	 0.5208	
755.60000	 0.5231	
755.80000	 0.5252	
756.00000	 0.5272	
756.20000	 0.5287	
756.40000	 0.5302	
756.60000	 0.5321	
756.80000	 0.5330	
757.00000	 0.5338	
757.20000	 0.5344	
757.40000	 0.5347	
757.60000	 0.5345	
757.80000	 0.5342	
758.00000	 0.5336	
758.20000	 0.5321	
758.40000	 0.5307	
758.60000	 0.5292	
758.80000	 0.5266	
759.00000	 0.5244	
759.20000	 0.5220	
759.40000	 0.5190	
759.60000	 0.5159	
759.80000	 0.5127	
760.00000	 0.5090	
760.20000	 0.5054	
760.40000	 0.5014	
760.60000	 0.4968	
760.80000	 0.4924	
761.00000	 0.4880	
761.20000	 0.4837	
761.40000	 0.4787	
761.60000	 0.4739	
761.80000	 0.4688	
762.00000	 0.4637	
762.20000	 0.4581	
762.40000	 0.4530	
762.60000	 0.4474	
762.80000	 0.4422	
763.00000	 0.4369	
763.20000	 0.4312	
763.40000	 0.4259	
763.60000	 0.4201	
763.80000	 0.4150	
764.00000	 0.4095	
764.20000	 0.4039	
764.40000	 0.3987	
764.60000	 0.3934	
764.80000	 0.3882	
765.00000	 0.3831	
765.20000	 0.3778	
765.40000	 0.3728	
765.60000	 0.3674	
765.80000	 0.3622	
766.00000	 0.3574	
766.20000	 0.3520	
766.40000	 0.3471	
766.60000	 0.3421	
766.80000	 0.3371	
767.00000	 0.3325	
767.20000	 0.3273	
767.40000	 0.3224	
767.60000	 0.3180	
767.80000	 0.3134	
768.00000	 0.3090	
768.20000	 0.3043	
768.40000	 0.2995	
768.60000	 0.2948	
768.80000	 0.2907	
769.00000	 0.2859	
769.20000	 0.2817	
769.40000	 0.2777	
769.60000	 0.2731	
769.80000	 0.2696	
770.00000	 0.2655	
770.20000	 0.2612	
770.40000	 0.2577	
770.60000	 0.2539	
770.80000	 0.2499	
771.00000	 0.2460	
771.20000	 0.2419	
771.40000	 0.2382	
771.60000	 0.2345	
771.80000	 0.2306	
772.00000	 0.2267	
772.20000	 0.2234	
772.40000	 0.2197	
772.60000	 0.2159	
772.80000	 0.2122	
773.00000	 0.2095	
773.20000	 0.2055	
773.40000	 0.2025	
773.60000	 0.1994	
773.80000	 0.1958	
774.00000	 0.1929	
774.20000	 0.1895	
774.40000	 0.1866	
774.60000	 0.1837	
774.80000	 0.1805	
775.00000	 0.1776	
775.20000	 0.1746	
775.40000	 0.1715	
775.60000	 0.1689	
775.80000	 0.1656	
776.00000	 0.1630	
776.20000	 0.1601	
776.40000	 0.1570	
776.60000	 0.1540	
776.80000	 0.1512	
777.00000	 0.1485	
777.20000	 0.1459	
777.40000	 0.1428	
777.60000	 0.1401	
777.80000	 0.1375	
778.00000	 0.1352	
778.20000	 0.1328	
778.40000	 0.1299	
778.60000	 0.1274	
778.80000	 0.1250	
779.00000	 0.1225	
779.20000	 0.1201	
779.40000	 0.1178	
779.60000	 0.1147	
779.80000	 0.1126	
780.00000	 0.1103	
780.20000	 0.1080	
780.40000	 0.1059	
780.60000	 0.1036	
780.80000	 0.1013	
781.00000	 0.0993	
781.20000	 0.0972	
781.40000	 0.0951	
781.60000	 0.0931	
781.80000	 0.0908	
782.00000	 0.0887	
782.20000	 0.0867	
782.40000	 0.0844	
782.60000	 0.0822	
782.80000	 0.0801	
783.00000	 0.0781	
783.20000	 0.0763	
783.40000	 0.0740	
783.60000	 0.0720	
783.80000	 0.0700	
784.00000	 0.0684	
784.20000	 0.0664	
784.40000	 0.0642	
784.60000	 0.0626	
784.80000	 0.0609	
785.00000	 0.0589	
785.20000	 0.0571	
785.40000	 0.0557	
785.60000	 0.0540	
785.80000	 0.0525	
786.00000	 0.0508	
786.20000	 0.0497	
786.40000	 0.0485	
786.60000	 0.0468	
786.80000	 0.0456	
787.00000	 0.0443	
787.20000	 0.0429	
787.40000	 0.0418	
787.60000	 0.0401	
787.80000	 0.0388	
788.00000	 0.0375	
788.20000	 0.0360	
788.40000	 0.0349	
788.60000	 0.0336	
788.80000	 0.0323	
789.00000	 0.0311	
789.20000	 0.0299	
789.40000	 0.0288	
789.60000	 0.0276	
789.80000	 0.0264	
790.00000	 0.0255	
790.20000	 0.0244	
790.40000	 0.0232	
790.60000	 0.0220	
790.80000	 0.0211	
791.00000	 0.0198	
791.20000	 0.0188	
791.40000	 0.0180	
791.60000	 0.0169	
791.80000	 0.0156	
792.00000	 0.0151	
792.20000	 0.0142	
792.40000	 0.0131	
792.60000	 0.0119	
792.80000	 0.0116	
793.00000	 0.0104	
793.20000	 0.0095	
793.40000	 0.0085	
793.60000	 0.0076	
793.80000	 0.0067	
794.00000	 0.0056	
794.20000	 0.0047	
794.40000	 0.0041	
794.60000	 0.0032	
794.80000	 0.0024	
795.00000	 0.0014	
795.20000	 0.0002	
795.40000	-0.0002	
795.60000	-0.0014	
795.80000	-0.0023	
796.00000	-0.0034	
796.20000	-0.0041	
796.40000	-0.0049	
796.60000	-0.0060	
796.80000	-0.0069	
797.00000	-0.0079	
797.20000	-0.0087	
797.40000	-0.0093	
797.60000	-0.0099	
797.80000	-0.0104	
798.00000	-0.0111	
798.20000	-0.0119	
798.40000	-0.0127	
798.60000	-0.0131	
798.80000	-0.0142	
799.00000	-0.0148	
799.20000	-0.0151	
799.40000	-0.0163	
799.60000	-0.0169	
799.80000	-0.0177	
800.00000	-0.0189	
800.20000	-0.0197	
800.40000	-0.0203	
800.60000	-0.0211	
800.80000	-0.0217	
801.00000	-0.0224	
801.20000	-0.0232	
801.40000	-0.0240	
801.60000	-0.0247	
801.80000	-0.0253	
802.00000	-0.0259	
802.20000	-0.0267	
802.40000	-0.0272	
802.60000	-0.0276	
802.80000	-0.0281	
803.00000	-0.0285	
803.20000	-0.0290	
803.40000	-0.0296	
803.60000	-0.0299	
803.80000	-0.0302	
804.00000	-0.0307	
804.20000	-0.0316	
804.40000	-0.0319	
804.60000	-0.0323	
804.80000	-0.0328	
805.00000	-0.0333	
805.20000	-0.0336	
805.40000	-0.0339	
805.60000	-0.0343	
805.80000	-0.0348	
806.00000	-0.0348	
806.20000	-0.0356	
806.40000	-0.0359	
806.60000	-0.0363	
806.80000	-0.0365	
807.00000	-0.0366	
807.20000	-0.0372	
807.40000	-0.0375	
807.60000	-0.0375	
807.80000	-0.0378	
808.00000	-0.0380	
808.20000	-0.0385	
808.40000	-0.0386	
808.60000	-0.0388	
808.80000	-0.0397	
809.00000	-0.0398	
809.20000	-0.0400	
809.40000	-0.0406	
809.60000	-0.0407	
809.80000	-0.0410	
810.00000	-0.0417	
810.20000	-0.0421	
810.40000	-0.0423	
810.60000	-0.0427	
810.80000	-0.0436	
811.00000	-0.0436	
811.20000	-0.0438	
811.40000	-0.0443	
811.60000	-0.0446	
811.80000	-0.0449	
812.00000	-0.0450	
812.20000	-0.0459	
812.40000	-0.0462	
812.60000	-0.0467	
812.80000	-0.0470	
813.00000	-0.0476	
813.20000	-0.0482	
813.40000	-0.0487	
813.60000	-0.0490	
813.80000	-0.0494	
814.00000	-0.0497	
814.20000	-0.0500	
814.40000	-0.0502	
814.60000	-0.0505	
814.80000	-0.0507	
815.00000	-0.0510	
815.20000	-0.0516	
815.40000	-0.0517	
815.60000	-0.0519	
815.80000	-0.0523	
816.00000	-0.0526	
816.20000	-0.0531	
816.40000	-0.0539	
816.60000	-0.0540	
816.80000	-0.0546	
817.00000	-0.0549	
817.20000	-0.0555	
817.40000	-0.0557	
817.60000	-0.0566	
817.80000	-0.0571	
818.00000	-0.0577	
818.20000	-0.0577	
818.40000	-0.0584	
818.60000	-0.0589	
818.80000	-0.0591	
819.00000	-0.0594	
819.20000	-0.0597	
819.40000	-0.0598	
819.60000	-0.0598	
819.80000	-0.0603	
820.00000	-0.0603	
820.20000	-0.0607	
820.40000	-0.0606	
820.60000	-0.0609	
820.80000	-0.0612	
821.00000	-0.0612	
821.20000	-0.0616	
821.40000	-0.0618	
821.60000	-0.0616	
821.80000	-0.0620	
822.00000	-0.0621	
822.20000	-0.0623	
822.40000	-0.0629	
822.60000	-0.0630	
822.80000	-0.0633	
823.00000	-0.0632	
823.20000	-0.0635	
823.40000	-0.0636	
823.60000	-0.0635	
823.80000	-0.0636	
824.00000	-0.0638	
824.20000	-0.0636	
824.40000	-0.0638	
824.60000	-0.0636	
824.80000	-0.0638	
825.00000	-0.0638	
825.20000	-0.0639	
825.40000	-0.0638	
825.60000	-0.0641	
825.80000	-0.0641	
826.00000	-0.0642	
826.20000	-0.0644	
826.40000	-0.0644	
826.60000	-0.0645	
826.80000	-0.0648	
827.00000	-0.0650	
827.20000	-0.0653	
827.40000	-0.0653	
827.60000	-0.0658	
827.80000	-0.0656	
828.00000	-0.0656	
828.20000	-0.0659	
828.40000	-0.0661	
828.60000	-0.0667	
828.80000	-0.0671	
829.00000	-0.0676	
829.20000	-0.0677	
829.40000	-0.0682	
829.60000	-0.0687	
829.80000	-0.0688	
830.00000	-0.0696	
830.20000	-0.0697	
830.40000	-0.0699	
830.60000	-0.0700	
830.80000	-0.0702	
831.00000	-0.0702	
831.20000	-0.0702	
831.40000	-0.0703	
831.60000	-0.0708	
831.80000	-0.0713	
832.00000	-0.0714	
832.20000	-0.0710	
832.40000	-0.0717	
832.60000	-0.0722	
832.80000	-0.0720	
833.00000	-0.0723	
833.20000	-0.0725	
833.40000	-0.0729	
833.60000	-0.0734	
833.80000	-0.0734	
834.00000	-0.0735	
834.20000	-0.0740	
834.40000	-0.0743	
834.60000	-0.0745	
834.80000	-0.0748	
835.00000	-0.0749	
835.20000	-0.0752	
835.40000	-0.0752	
835.60000	-0.0757	
835.80000	-0.0760	
836.00000	-0.0758	
836.20000	-0.0761	
836.40000	-0.0763	
836.60000	-0.0758	
836.80000	-0.0761	
837.00000	-0.0761	
837.20000	-0.0761	
837.40000	-0.0763	
837.60000	-0.0763	
837.80000	-0.0766	
838.00000	-0.0763	
838.20000	-0.0766	
838.40000	-0.0766	
838.60000	-0.0764	
838.80000	-0.0766	
839.00000	-0.0766	
839.20000	-0.0764	
839.40000	-0.0769	
839.60000	-0.0766	
839.80000	-0.0768	
840.00000	-0.0769	
840.20000	-0.0769	
840.40000	-0.0769	
840.60000	-0.0771	
840.80000	-0.0772	
841.00000	-0.0771	
841.20000	-0.0771	
841.40000	-0.0771	
841.60000	-0.0775	
841.80000	-0.0769	
842.00000	-0.0772	
842.20000	-0.0772	
842.40000	-0.0772	
842.60000	-0.0775	
842.80000	-0.0778	
843.00000	-0.0775	
843.20000	-0.0775	
843.40000	-0.0778	
843.60000	-0.0780	
843.80000	-0.0778	
844.00000	-0.0781	
844.20000	-0.0783	
844.40000	-0.0781	
844.60000	-0.0781	
844.80000	-0.0784	
845.00000	-0.0783	
845.20000	-0.0786	
845.40000	-0.0792	
845.60000	-0.0792	
845.80000	-0.0793	
846.00000	-0.0793	
846.20000	-0.0801	
846.40000	-0.0800	
846.60000	-0.0803	
846.80000	-0.0804	
847.00000	-0.0804	
847.20000	-0.0806	
847.40000	-0.0806	
847.60000	-0.0807	
847.80000	-0.0807	
848.00000	-0.0807	
848.20000	-0.0809	
848.40000	-0.0810	
848.60000	-0.0807	
848.80000	-0.0812	
849.00000	-0.0812	
849.20000	-0.0812	
849.40000	-0.0813	
849.60000	-0.0815	
849.80000	-0.0815	
850.00000	-0.0821	
850.20000	-0.0826	
850.40000	-0.0824	
850.60000	-0.0824	
850.80000	-0.0827	
851.00000	-0.0832	
851.20000	-0.0830	
851.40000	-0.0833	
851.60000	-0.0836	
851.80000	-0.0835	
852.00000	-0.0836	
852.20000	-0.0833	
852.40000	-0.0836	
852.60000	-0.0835	
852.80000	-0.0836	
853.00000	-0.0835	
853.20000	-0.0835	
853.40000	-0.0835	
853.60000	-0.0839	
853.80000	-0.0836	
854.00000	-0.0835	
854.20000	-0.0836	
854.40000	-0.0839	
854.60000	-0.0836	
854.80000	-0.0836	
855.00000	-0.0832	
855.20000	-0.0836	
855.40000	-0.0833	
855.60000	-0.0832	
855.80000	-0.0832	
856.00000	-0.0833	
856.20000	-0.0835	
856.40000	-0.0833	
856.60000	-0.0833	
856.80000	-0.0835	
857.00000	-0.0833	
857.20000	-0.0830	
857.40000	-0.0832	
857.60000	-0.0830	
857.80000	-0.0826	
858.00000	-0.0824	
858.20000	-0.0822	
858.40000	-0.0822	
858.60000	-0.0822	
858.80000	-0.0822	
859.00000	-0.0822	
859.20000	-0.0819	
859.40000	-0.0819	
859.60000	-0.0813	
859.80000	-0.0819	
860.00000	-0.0815	
860.20000	-0.0812	
860.40000	-0.0810	
860.60000	-0.0809	
860.80000	-0.0810	
861.00000	-0.0807	
861.20000	-0.0807	
861.40000	-0.0807	
861.60000	-0.0807	
861.80000	-0.0806	
862.00000	-0.0809	
862.20000	-0.0804	
862.40000	-0.0807	
862.60000	-0.0806	
862.80000	-0.0807	
863.00000	-0.0807	
863.20000	-0.0804	
863.40000	-0.0806	
863.60000	-0.0801	
863.80000	-0.0803	
864.00000	-0.0801	
864.20000	-0.0800	
864.40000	-0.0798	
864.60000	-0.0800	
864.80000	-0.0793	
865.00000	-0.0793	
865.20000	-0.0793	
865.40000	-0.0797	
865.60000	-0.0792	
865.80000	-0.0793	
866.00000	-0.0792	
866.20000	-0.0793	
866.40000	-0.0793	
866.60000	-0.0793	
866.80000	-0.0798	
867.00000	-0.0797	
867.20000	-0.0793	
867.40000	-0.0790	
867.60000	-0.0793	
867.80000	-0.0793	
868.00000	-0.0790	
868.20000	-0.0790	
868.40000	-0.0792	
868.60000	-0.0789	
868.80000	-0.0787	
869.00000	-0.0787	
869.20000	-0.0786	
869.40000	-0.0784	
869.60000	-0.0783	
869.80000	-0.0783	
870.00000	-0.0781	
870.20000	-0.0781	
870.40000	-0.0780	
870.60000	-0.0775	
870.80000	-0.0771	
871.00000	-0.0769	
871.20000	-0.0769	
871.40000	-0.0769	
871.60000	-0.0764	
871.80000	-0.0764	
872.00000	-0.0761	
872.20000	-0.0760	
872.40000	-0.0760	
872.60000	-0.0758	
872.80000	-0.0761	
873.00000	-0.0760	
873.20000	-0.0757	
873.40000	-0.0752	
873.60000	-0.0748	
873.80000	-0.0746	
874.00000	-0.0742	
874.20000	-0.0739	
874.40000	-0.0734	
874.60000	-0.0726	
874.80000	-0.0725	
875.00000	-0.0720	
875.20000	-0.0720	
875.40000	-0.0714	
875.60000	-0.0713	
875.80000	-0.0710	
876.00000	-0.0706	
876.20000	-0.0703	
876.40000	-0.0702	
876.60000	-0.0702	
876.80000	-0.0699	
877.00000	-0.0696	
877.20000	-0.0691	
877.40000	-0.0691	
877.60000	-0.0694	
877.80000	-0.0691	
878.00000	-0.0685	
878.20000	-0.0687	
878.40000	-0.0684	
878.60000	-0.0684	
878.80000	-0.0684	
879.00000	-0.0685	
879.20000	-0.0682	
879.40000	-0.0681	
879.60000	-0.0681	
879.80000	-0.0679	
880.00000	-0.0677	
880.20000	-0.0677	
880.40000	-0.0676	
880.60000	-0.0671	
880.80000	-0.0667	
881.00000	-0.0673	
881.20000	-0.0670	
881.40000	-0.0667	
881.60000	-0.0665	
881.80000	-0.0670	
882.00000	-0.0665	
882.20000	-0.0665	
882.40000	-0.0661	
882.60000	-0.0662	
882.80000	-0.0662	
883.00000	-0.0662	
883.20000	-0.0661	
883.40000	-0.0661	
883.60000	-0.0661	
883.80000	-0.0662	
884.00000	-0.0658	
884.20000	-0.0659	
884.40000	-0.0658	
884.60000	-0.0658	
884.80000	-0.0659	
885.00000	-0.0658	
885.20000	-0.0658	
885.40000	-0.0656	
885.60000	-0.0658	
885.80000	-0.0658	
886.00000	-0.0656	
886.20000	-0.0655	
886.40000	-0.0656	
886.60000	-0.0655	
886.80000	-0.0652	
887.00000	-0.0652	
887.20000	-0.0645	
887.40000	-0.0645	
887.60000	-0.0645	
887.80000	-0.0642	
888.00000	-0.0642	
888.20000	-0.0636	
888.40000	-0.0636	
888.60000	-0.0632	
888.80000	-0.0630	
889.00000	-0.0624	
889.20000	-0.0624	
889.40000	-0.0627	
889.60000	-0.0621	
889.80000	-0.0620	
890.00000	-0.0616	
890.20000	-0.0613	
890.40000	-0.0610	
890.60000	-0.0607	
890.80000	-0.0601	
891.00000	-0.0597	
891.20000	-0.0591	
891.40000	-0.0587	
891.60000	-0.0586	
891.80000	-0.0581	
892.00000	-0.0580	
892.20000	-0.0578	
892.40000	-0.0575	
892.60000	-0.0575	
892.80000	-0.0574	
893.00000	-0.0571	
893.20000	-0.0571	
893.40000	-0.0566	
893.60000	-0.0565	
893.80000	-0.0566	
894.00000	-0.0562	
894.20000	-0.0560	
894.40000	-0.0560	
894.60000	-0.0560	
894.80000	-0.0558	
895.00000	-0.0557	
895.20000	-0.0552	
895.40000	-0.0558	
895.60000	-0.0557	
895.80000	-0.0558	
896.00000	-0.0558	
896.20000	-0.0558	
896.40000	-0.0558	
896.60000	-0.0558	
896.80000	-0.0560	
897.00000	-0.0558	
897.20000	-0.0558	
897.40000	-0.0560	
897.60000	-0.0558	
897.80000	-0.0555	
898.00000	-0.0552	
898.20000	-0.0554	
898.40000	-0.0557	
898.60000	-0.0552	
898.80000	-0.0554	
899.00000	-0.0552	
899.20000	-0.0549	
899.40000	-0.0548	
899.60000	-0.0548	
899.80000	-0.0551	
900.00000	-0.0549	
900.20000	-0.0549	
900.40000	-0.0548	
900.60000	-0.0543	
900.80000	-0.0545	
901.00000	-0.0543	
901.20000	-0.0548	
901.40000	-0.0543	
901.60000	-0.0545	
901.80000	-0.0539	
902.00000	-0.0539	
902.20000	-0.0537	
902.40000	-0.0539	
902.60000	-0.0533	
902.80000	-0.0531	
903.00000	-0.0529	
903.20000	-0.0528	
903.40000	-0.0525	
903.60000	-0.0522	
903.80000	-0.0513	
904.00000	-0.0513	
904.20000	-0.0511	
904.40000	-0.0508	
904.60000	-0.0505	
904.80000	-0.0502	
905.00000	-0.0496	
905.20000	-0.0493	
905.40000	-0.0487	
905.60000	-0.0485	
905.80000	-0.0484	
906.00000	-0.0481	
906.20000	-0.0476	
906.40000	-0.0476	
906.60000	-0.0471	
906.80000	-0.0470	
907.00000	-0.0465	
907.20000	-0.0462	
907.40000	-0.0459	
907.60000	-0.0455	
907.80000	-0.0449	
908.00000	-0.0447	
908.20000	-0.0444	
908.40000	-0.0443	
908.60000	-0.0443	
908.80000	-0.0438	
909.00000	-0.0438	
909.20000	-0.0433	
909.40000	-0.0430	
909.60000	-0.0430	
909.80000	-0.0430	
910.00000	-0.0427	
910.20000	-0.0424	
910.40000	-0.0424	
910.60000	-0.0421	
910.80000	-0.0421	
911.00000	-0.0421	
911.20000	-0.0418	
911.40000	-0.0421	
911.60000	-0.0415	
911.80000	-0.0412	
912.00000	-0.0415	
912.20000	-0.0415	
912.40000	-0.0415	
912.60000	-0.0415	
912.80000	-0.0412	
913.00000	-0.0410	
913.20000	-0.0412	
913.40000	-0.0415	
913.60000	-0.0412	
913.80000	-0.0410	
914.00000	-0.0410	
914.20000	-0.0412	
914.40000	-0.0415	
914.60000	-0.0415	
914.80000	-0.0409	
915.00000	-0.0409	
915.20000	-0.0410	
915.40000	-0.0409	
915.60000	-0.0406	
915.80000	-0.0409	
916.00000	-0.0407	
916.20000	-0.0406	
916.40000	-0.0406	
916.60000	-0.0406	
916.80000	-0.0406	
917.00000	-0.0406	
917.20000	-0.0407	
917.40000	-0.0406	
917.60000	-0.0406	
917.80000	-0.0409	
918.00000	-0.0409	
918.20000	-0.0409	
918.40000	-0.0410	
918.60000	-0.0407	
918.80000	-0.0410	
919.00000	-0.0415	
919.20000	-0.0410	
919.40000	-0.0410	
919.60000	-0.0415	
919.80000	-0.0417	
920.00000	-0.0410	
920.20000	-0.0415	
920.40000	-0.0415	
920.60000	-0.0412	
920.80000	-0.0412	
921.00000	-0.0415	
921.20000	-0.0412	
921.40000	-0.0410	
921.60000	-0.0410	
921.80000	-0.0409	
922.00000	-0.0406	
922.20000	-0.0409	
922.40000	-0.0409	
922.60000	-0.0415	
922.80000	-0.0412	
923.00000	-0.0418	
923.20000	-0.0412	
923.40000	-0.0412	
923.60000	-0.0417	
923.80000	-0.0415	
924.00000	-0.0410	
924.20000	-0.0415	
924.40000	-0.0415	
924.60000	-0.0412	
924.80000	-0.0410	
925.00000	-0.0415	
925.20000	-0.0418	
925.40000	-0.0418	
925.60000	-0.0418	
925.80000	-0.0418	
926.00000	-0.0420	
926.20000	-0.0421	
926.40000	-0.0424	
926.60000	-0.0423	
926.80000	-0.0426	
927.00000	-0.0423	
927.20000	-0.0427	
927.40000	-0.0430	
927.60000	-0.0427	
927.80000	-0.0432	
928.00000	-0.0433	
928.20000	-0.0436	
928.40000	-0.0444	
928.60000	-0.0446	
928.80000	-0.0449	
929.00000	-0.0453	
929.20000	-0.0458	
929.40000	-0.0459	
929.60000	-0.0465	
929.80000	-0.0467	
930.00000	-0.0471	
930.20000	-0.0475	
930.40000	-0.0479	
930.60000	-0.0484	
930.80000	-0.0485	
931.00000	-0.0488	
931.20000	-0.0493	
931.40000	-0.0494	
931.60000	-0.0502	
931.80000	-0.0505	
932.00000	-0.0507	
932.20000	-0.0513	
932.40000	-0.0513	
932.60000	-0.0517	
932.80000	-0.0525	
933.00000	-0.0529	
933.20000	-0.0533	
933.40000	-0.0543	
933.60000	-0.0545	
933.80000	-0.0549	
934.00000	-0.0552	
934.20000	-0.0558	
934.40000	-0.0565	
934.60000	-0.0569	
934.80000	-0.0574	
935.00000	-0.0575	
935.20000	-0.0581	
935.40000	-0.0587	
935.60000	-0.0589	
935.80000	-0.0597	
936.00000	-0.0600	
936.20000	-0.0606	
936.40000	-0.0609	
936.60000	-0.0612	
936.80000	-0.0613	
937.00000	-0.0616	
937.20000	-0.0621	
937.40000	-0.0621	
937.60000	-0.0629	
937.80000	-0.0629	
938.00000	-0.0630	
938.20000	-0.0635	
938.40000	-0.0638	
938.60000	-0.0642	
938.80000	-0.0644	
939.00000	-0.0648	
939.20000	-0.0650	
939.40000	-0.0655	
939.60000	-0.0656	
939.80000	-0.0661	
940.00000	-0.0662	
940.20000	-0.0667	
940.40000	-0.0670	
940.60000	-0.0670	
940.80000	-0.0674	
941.00000	-0.0676	
941.20000	-0.0677	
941.40000	-0.0684	
941.60000	-0.0685	
941.80000	-0.0688	
942.00000	-0.0694	
942.20000	-0.0697	
942.40000	-0.0697	
942.60000	-0.0700	
942.80000	-0.0705	
943.00000	-0.0706	
943.20000	-0.0710	
943.40000	-0.0717	
943.60000	-0.0716	
943.80000	-0.0719	
944.00000	-0.0723	
944.20000	-0.0725	
944.40000	-0.0726	
944.60000	-0.0726	
944.80000	-0.0734	
945.00000	-0.0737	
945.20000	-0.0739	
945.40000	-0.0743	
945.60000	-0.0745	
945.80000	-0.0749	
946.00000	-0.0749	
946.20000	-0.0752	
946.40000	-0.0757	
946.60000	-0.0763	
946.80000	-0.0766	
947.00000	-0.0768	
947.20000	-0.0772	
947.40000	-0.0775	
947.60000	-0.0775	
947.80000	-0.0780	
948.00000	-0.0783	
948.20000	-0.0786	
948.40000	-0.0786	
948.60000	-0.0792	
948.80000	-0.0793	
949.00000	-0.0792	
949.20000	-0.0797	
949.40000	-0.0798	
949.60000	-0.0804	
949.80000	-0.0806	
950.00000	-0.0809	
950.20000	-0.0810	
950.40000	-0.0813	
950.60000	-0.0815	
950.80000	-0.0815	
951.00000	-0.0821	
951.20000	-0.0822	
951.40000	-0.0826	
951.60000	-0.0824	
951.80000	-0.0826	
952.00000	-0.0832	
952.20000	-0.0829	
952.40000	-0.0832	
952.60000	-0.0832	
952.80000	-0.0833	
953.00000	-0.0833	
953.20000	-0.0833	
953.40000	-0.0833	
953.60000	-0.0833	
953.80000	-0.0833	
954.00000	-0.0833	
954.20000	-0.0833	
954.40000	-0.0832	
954.60000	-0.0832	
954.80000	-0.0832	
955.00000	-0.0829	
955.20000	-0.0829	
955.40000	-0.0829	
955.60000	-0.0832	
955.80000	-0.0829	
956.00000	-0.0833	
956.20000	-0.0833	
956.40000	-0.0829	
956.60000	-0.0829	
956.80000	-0.0829	
957.00000	-0.0824	
957.20000	-0.0824	
957.40000	-0.0824	
957.60000	-0.0821	
957.80000	-0.0822	
958.00000	-0.0818	
958.20000	-0.0819	
958.40000	-0.0819	
958.60000	-0.0818	
958.80000	-0.0815	
959.00000	-0.0813	
959.20000	-0.0813	
959.40000	-0.0813	
959.60000	-0.0810	
959.80000	-0.0812	
960.00000	-0.0810	
960.20000	-0.0809	
960.40000	-0.0810	
960.60000	-0.0809	
960.80000	-0.0810	
961.00000	-0.0813	
961.20000	-0.0812	
961.40000	-0.0810	
961.60000	-0.0812	
961.80000	-0.0809	
962.00000	-0.0812	
962.20000	-0.0810	
962.40000	-0.0813	
962.60000	-0.0813	
962.80000	-0.0818	
963.00000	-0.0813	
963.20000	-0.0819	
963.40000	-0.0819	
963.60000	-0.0822	
963.80000	-0.0821	
964.00000	-0.0821	
964.20000	-0.0824	
964.40000	-0.0822	
964.60000	-0.0821	
964.80000	-0.0826	
965.00000	-0.0824	
965.20000	-0.0826	
965.40000	-0.0824	
965.60000	-0.0824	
965.80000	-0.0826	
966.00000	-0.0824	
966.20000	-0.0826	
966.40000	-0.0824	
966.60000	-0.0824	
966.80000	-0.0827	
967.00000	-0.0826	
967.20000	-0.0822	
967.40000	-0.0821	
967.60000	-0.0819	
967.80000	-0.0821	
968.00000	-0.0819	
968.20000	-0.0819	
968.40000	-0.0821	
968.60000	-0.0822	
968.80000	-0.0819	
969.00000	-0.0821	
969.20000	-0.0819	
969.40000	-0.0818	
969.60000	-0.0819	
969.80000	-0.0818	
970.00000	-0.0815	
970.20000	-0.0812	
970.40000	-0.0812	
970.60000	-0.0810	
970.80000	-0.0809	
971.00000	-0.0809	
971.20000	-0.0809	
971.40000	-0.0803	
971.60000	-0.0804	
971.80000	-0.0801	
972.00000	-0.0797	
972.20000	-0.0792	
972.40000	-0.0790	
972.60000	-0.0789	
972.80000	-0.0789	
973.00000	-0.0784	
973.20000	-0.0780	
973.40000	-0.0778	
973.60000	-0.0777	
973.80000	-0.0772	
974.00000	-0.0769	
974.20000	-0.0769	
974.40000	-0.0763	
974.60000	-0.0760	
974.80000	-0.0764	
975.00000	-0.0757	
975.20000	-0.0757	
975.40000	-0.0757	
975.60000	-0.0752	
975.80000	-0.0749	
976.00000	-0.0749	
976.20000	-0.0746	
976.40000	-0.0748	
976.60000	-0.0745	
976.80000	-0.0745	
977.00000	-0.0745	
977.20000	-0.0745	
977.40000	-0.0746	
977.60000	-0.0746	
977.80000	-0.0745	
978.00000	-0.0743	
978.20000	-0.0743	
978.40000	-0.0743	
978.60000	-0.0742	
978.80000	-0.0740	
979.00000	-0.0740	
979.20000	-0.0737	
979.40000	-0.0740	
979.60000	-0.0740	
979.80000	-0.0739	
980.00000	-0.0737	
980.20000	-0.0739	
980.40000	-0.0739	
980.60000	-0.0734	
980.80000	-0.0731	
981.00000	-0.0729	
981.20000	-0.0734	
981.40000	-0.0734	
981.60000	-0.0729	
981.80000	-0.0729	
982.00000	-0.0726	
982.20000	-0.0723	
982.40000	-0.0723	
982.60000	-0.0723	
982.80000	-0.0723	
983.00000	-0.0726	
983.20000	-0.0725	
983.40000	-0.0726	
983.60000	-0.0723	
983.80000	-0.0722	
984.00000	-0.0720	
984.20000	-0.0720	
984.40000	-0.0717	
984.60000	-0.0719	
984.80000	-0.0719	
985.00000	-0.0717	
985.20000	-0.0716	
985.40000	-0.0717	
985.60000	-0.0713	
985.80000	-0.0713	
986.00000	-0.0716	
986.20000	-0.0708	
986.40000	-0.0705	
986.60000	-0.0700	
986.80000	-0.0699	
987.00000	-0.0696	
987.20000	-0.0696	
987.40000	-0.0696	
987.60000	-0.0691	
987.80000	-0.0694	
988.00000	-0.0688	
988.20000	-0.0685	
988.40000	-0.0685	
988.60000	-0.0682	
988.80000	-0.0677	
989.00000	-0.0674	
989.20000	-0.0676	
989.40000	-0.0667	
989.60000	-0.0664	
989.80000	-0.0662	
990.00000	-0.0656	
990.20000	-0.0655	
990.40000	-0.0650	
990.60000	-0.0645	
990.80000	-0.0644	
991.00000	-0.0639	
991.20000	-0.0638	
991.40000	-0.0636	
991.60000	-0.0632	
991.80000	-0.0630	
992.00000	-0.0627	
992.20000	-0.0627	
992.40000	-0.0623	
992.60000	-0.0618	
992.80000	-0.0616	
993.00000	-0.0616	
993.20000	-0.0615	
993.40000	-0.0612	
993.60000	-0.0610	
993.80000	-0.0610	
994.00000	-0.0610	
994.20000	-0.0609	
994.40000	-0.0607	
994.60000	-0.0607	
994.80000	-0.0603	
995.00000	-0.0600	
995.20000	-0.0600	
995.40000	-0.0597	
995.60000	-0.0595	
995.80000	-0.0592	
996.00000	-0.0591	
996.20000	-0.0592	
996.40000	-0.0591	
996.60000	-0.0587	
996.80000	-0.0589	
997.00000	-0.0586	
997.20000	-0.0584	
997.40000	-0.0584	
997.60000	-0.0578	
997.80000	-0.0578	
998.00000	-0.0575	
998.20000	-0.0575	
998.40000	-0.0572	
998.60000	-0.0571	
998.80000	-0.0568	
999.00000	-0.0566	
999.20000	-0.0566	
999.40000	-0.0560	
999.60000	-0.0562	
999.80000	-0.0557	
1000.00000	-0.0558	
1000.20000	-0.0555	
1000.40000	-0.0555	
1000.60000	-0.0551	
1000.80000	-0.0551	
1001.00000	-0.0554	
1001.20000	-0.0552	
1001.40000	-0.0548	
1001.60000	-0.0546	
1001.80000	-0.0545	
1002.00000	-0.0540	
1002.20000	-0.0540	
1002.40000	-0.0539	
1002.60000	-0.0536	
1002.80000	-0.0534	
1003.00000	-0.0533	
1003.20000	-0.0526	
1003.40000	-0.0522	
1003.60000	-0.0522	
1003.80000	-0.0517	
1004.00000	-0.0516	
1004.20000	-0.0513	
1004.40000	-0.0511	
1004.60000	-0.0507	
1004.80000	-0.0507	
1005.00000	-0.0497	
1005.20000	-0.0497	
1005.40000	-0.0494	
1005.60000	-0.0491	
1005.80000	-0.0490	
1006.00000	-0.0487	
1006.20000	-0.0487	
1006.40000	-0.0482	
1006.60000	-0.0481	
1006.80000	-0.0476	
1007.00000	-0.0476	
1007.20000	-0.0470	
1007.40000	-0.0468	
1007.60000	-0.0468	
1007.80000	-0.0464	
1008.00000	-0.0461	
1008.20000	-0.0461	
1008.40000	-0.0459	
1008.60000	-0.0458	
1008.80000	-0.0453	
1009.00000	-0.0450	
1009.20000	-0.0446	
1009.40000	-0.0446	
1009.60000	-0.0443	
1009.80000	-0.0439	
1010.00000	-0.0439	
1010.20000	-0.0439	
1010.40000	-0.0438	
1010.60000	-0.0436	
1010.80000	-0.0433	
1011.00000	-0.0430	
1011.20000	-0.0430	
1011.40000	-0.0430	
1011.60000	-0.0430	
1011.80000	-0.0427	
1012.00000	-0.0426	
1012.20000	-0.0429	
1012.40000	-0.0427	
1012.60000	-0.0426	
1012.80000	-0.0430	
1013.00000	-0.0429	
1013.20000	-0.0426	
1013.40000	-0.0424	
1013.60000	-0.0421	
1013.80000	-0.0420	
1014.00000	-0.0418	
1014.20000	-0.0420	
1014.40000	-0.0415	
1014.60000	-0.0415	
1014.80000	-0.0412	
1015.00000	-0.0409	
1015.20000	-0.0407	
1015.40000	-0.0409	
1015.60000	-0.0404	
1015.80000	-0.0406	
1016.00000	-0.0407	
1016.20000	-0.0412	
1016.40000	-0.0406	
1016.60000	-0.0407	
1016.80000	-0.0410	
1017.00000	-0.0410	
1017.20000	-0.0409	
1017.40000	-0.0415	
1017.60000	-0.0415	
1017.80000	-0.0418	
1018.00000	-0.0417	
1018.20000	-0.0415	
1018.40000	-0.0417	
1018.60000	-0.0415	
1018.80000	-0.0418	
1019.00000	-0.0415	
1019.20000	-0.0412	
1019.40000	-0.0412	
1019.60000	-0.0412	
1019.80000	-0.0409	
1020.00000	-0.0407	
1020.20000	-0.0404	
1020.40000	-0.0401	
1020.60000	-0.0401	
1020.80000	-0.0401	
1021.00000	-0.0398	
1021.20000	-0.0398	
1021.40000	-0.0395	
1021.60000	-0.0394	
1021.80000	-0.0391	
1022.00000	-0.0388	
1022.20000	-0.0388	
1022.40000	-0.0388	
1022.60000	-0.0386	
1022.80000	-0.0388	
1023.00000	-0.0381	
1023.20000	-0.0381	
1023.40000	-0.0381	
1023.60000	-0.0380	
1023.80000	-0.0377	
1024.00000	-0.0377	
1024.20000	-0.0377	
1024.40000	-0.0374	
1024.60000	-0.0372	
1024.80000	-0.0372	
1025.00000	-0.0372	
1025.20000	-0.0372	
1025.40000	-0.0372	
1025.60000	-0.0365	
1025.80000	-0.0366	
1026.00000	-0.0366	
1026.20000	-0.0362	
1026.40000	-0.0363	
1026.60000	-0.0363	
1026.80000	-0.0363	
1027.00000	-0.0362	
1027.20000	-0.0362	
1027.40000	-0.0362	
1027.60000	-0.0363	
1027.80000	-0.0363	
1028.00000	-0.0362	
1028.20000	-0.0362	
1028.40000	-0.0359	
1028.60000	-0.0360	
1028.80000	-0.0362	
1029.00000	-0.0366	
1029.20000	-0.0368	
1029.40000	-0.0369	
1029.60000	-0.0369	
1029.80000	-0.0374	
1030.00000	-0.0375	
1030.20000	-0.0374	
1030.40000	-0.0374	
1030.60000	-0.0375	
1030.80000	-0.0377	
1031.00000	-0.0374	
1031.20000	-0.0377	
1031.40000	-0.0377	
1031.60000	-0.0378	
1031.80000	-0.0380	
1032.00000	-0.0380	
1032.20000	-0.0378	
1032.40000	-0.0381	
1032.60000	-0.0381	
1032.80000	-0.0381	
1033.00000	-0.0386	
1033.20000	-0.0385	
1033.40000	-0.0383	
1033.60000	-0.0386	
1033.80000	-0.0386	
1034.00000	-0.0383	
1034.20000	-0.0385	
1034.40000	-0.0386	
1034.60000	-0.0388	
1034.80000	-0.0388	
1035.00000	-0.0388	
1035.20000	-0.0389	
1035.40000	-0.0388	
1035.60000	-0.0389	
1035.80000	-0.0388	
1036.00000	-0.0388	
1036.20000	-0.0388	
1036.40000	-0.0386	
1036.60000	-0.0386	
1036.80000	-0.0383	
1037.00000	-0.0381	
1037.20000	-0.0381	
1037.40000	-0.0380	
1037.60000	-0.0378	
1037.80000	-0.0381	
1038.00000	-0.0380	
1038.20000	-0.0377	
1038.40000	-0.0378	
1038.60000	-0.0377	
1038.80000	-0.0375	
1039.00000	-0.0375	
1039.20000	-0.0377	
1039.40000	-0.0375	
1039.60000	-0.0374	
1039.80000	-0.0374	
1040.00000	-0.0368	
1040.20000	-0.0366	
1040.40000	-0.0368	
1040.60000	-0.0366	
1040.80000	-0.0366	
1041.00000	-0.0366	
1041.20000	-0.0366	
1041.40000	-0.0366	
1041.60000	-0.0363	
1041.80000	-0.0366	
1042.00000	-0.0366	
1042.20000	-0.0363	
1042.40000	-0.0365	
1042.60000	-0.0366	
1042.80000	-0.0368	
1043.00000	-0.0368	
1043.20000	-0.0368	
1043.40000	-0.0369	
1043.60000	-0.0375	
1043.80000	-0.0381	
1044.00000	-0.0380	
1044.20000	-0.0386	
1044.40000	-0.0383	
1044.60000	-0.0386	
1044.80000	-0.0388	
1045.00000	-0.0386	
1045.20000	-0.0388	
1045.40000	-0.0388	
1045.60000	-0.0386	
1045.80000	-0.0389	
1046.00000	-0.0391	
1046.20000	-0.0389	
1046.40000	-0.0386	
1046.60000	-0.0386	
1046.80000	-0.0386	
1047.00000	-0.0385	
1047.20000	-0.0385	
1047.40000	-0.0383	
1047.60000	-0.0381	
1047.80000	-0.0381	
1048.00000	-0.0381	
1048.20000	-0.0381	
1048.40000	-0.0385	
1048.60000	-0.0383	
1048.80000	-0.0383	
1049.00000	-0.0386	
1049.20000	-0.0388	
1049.40000	-0.0389	
1049.60000	-0.0389	
1049.80000	-0.0391	
1050.00000	-0.0391	
1050.20000	-0.0395	
1050.40000	-0.0398	
1050.60000	-0.0398	
1050.80000	-0.0397	
1051.00000	-0.0400	
1051.20000	-0.0403	
1051.40000	-0.0406	
1051.60000	-0.0407	
1051.80000	-0.0415	
1052.00000	-0.0410	
1052.20000	-0.0417	
1052.40000	-0.0412	
1052.60000	-0.0417	
1052.80000	-0.0417	
1053.00000	-0.0420	
1053.20000	-0.0417	
1053.40000	-0.0415	
1053.60000	-0.0415	
1053.80000	-0.0415	
1054.00000	-0.0410	
1054.20000	-0.0410	
1054.40000	-0.0412	
1054.60000	-0.0407	
1054.80000	-0.0407	
1055.00000	-0.0407	
1055.20000	-0.0406	
1055.40000	-0.0406	
1055.60000	-0.0407	
1055.80000	-0.0410	
1056.00000	-0.0410	
1056.20000	-0.0407	
1056.40000	-0.0407	
1056.60000	-0.0406	
1056.80000	-0.0404	
1057.00000	-0.0403	
1057.20000	-0.0404	
1057.40000	-0.0401	
1057.60000	-0.0404	
1057.80000	-0.0400	
1058.00000	-0.0397	
1058.20000	-0.0398	
1058.40000	-0.0401	
1058.60000	-0.0400	
1058.80000	-0.0398	
1059.00000	-0.0398	
1059.20000	-0.0398	
1059.40000	-0.0397	
1059.60000	-0.0398	
1059.80000	-0.0397	
1060.00000	-0.0400	
1060.20000	-0.0398	
1060.40000	-0.0401	
1060.60000	-0.0403	
1060.80000	-0.0401	
1061.00000	-0.0401	
1061.20000	-0.0401	
1061.40000	-0.0400	
1061.60000	-0.0400	
1061.80000	-0.0401	
1062.00000	-0.0401	
1062.20000	-0.0404	
1062.40000	-0.0406	
1062.60000	-0.0404	
1062.80000	-0.0407	
1063.00000	-0.0410	
1063.20000	-0.0410	
1063.40000	-0.0412	
1063.60000	-0.0410	
1063.80000	-0.0410	
1064.00000	-0.0410	
1064.20000	-0.0407	
1064.40000	-0.0407	
1064.60000	-0.0409	
1064.80000	-0.0409	
1065.00000	-0.0410	
1065.20000	-0.0410	
1065.40000	-0.0412	
1065.60000	-0.0415	
1065.80000	-0.0412	
1066.00000	-0.0418	
1066.20000	-0.0418	
1066.40000	-0.0418	
1066.60000	-0.0423	
1066.80000	-0.0426	
1067.00000	-0.0426	
1067.20000	-0.0423	
1067.40000	-0.0424	
1067.60000	-0.0426	
1067.80000	-0.0429	
1068.00000	-0.0432	
1068.20000	-0.0432	
1068.40000	-0.0432	
1068.60000	-0.0433	
1068.80000	-0.0436	
1069.00000	-0.0433	
1069.20000	-0.0433	
1069.40000	-0.0436	
1069.60000	-0.0436	
1069.80000	-0.0432	
1070.00000	-0.0432	
1070.20000	-0.0436	
1070.40000	-0.0432	
1070.60000	-0.0432	
1070.80000	-0.0432	
1071.00000	-0.0433	
1071.20000	-0.0432	
1071.40000	-0.0436	
1071.60000	-0.0433	
1071.80000	-0.0432	
1072.00000	-0.0432	
1072.20000	-0.0433	
1072.40000	-0.0436	
1072.60000	-0.0436	
1072.80000	-0.0433	
1073.00000	-0.0432	
1073.20000	-0.0430	
1073.40000	-0.0430	
1073.60000	-0.0429	
1073.80000	-0.0427	
1074.00000	-0.0427	
1074.20000	-0.0429	
1074.40000	-0.0427	
1074.60000	-0.0426	
1074.80000	-0.0427	
1075.00000	-0.0426	
1075.20000	-0.0426	
1075.40000	-0.0427	
1075.60000	-0.0424	
1075.80000	-0.0424	
1076.00000	-0.0427	
1076.20000	-0.0427	
1076.40000	-0.0426	
1076.60000	-0.0427	
1076.80000	-0.0427	
1077.00000	-0.0427	
1077.20000	-0.0427	
1077.40000	-0.0426	
1077.60000	-0.0426	
1077.80000	-0.0427	
1078.00000	-0.0430	
1078.20000	-0.0429	
1078.40000	-0.0427	
1078.60000	-0.0430	
1078.80000	-0.0432	
1079.00000	-0.0438	
1079.20000	-0.0438	
1079.40000	-0.0439	
1079.60000	-0.0438	
1079.80000	-0.0439	
1080.00000	-0.0439	
1080.20000	-0.0439	
1080.40000	-0.0438	
1080.60000	-0.0433	
1080.80000	-0.0436	
1081.00000	-0.0433	
1081.20000	-0.0433	
1081.40000	-0.0432	
1081.60000	-0.0432	
1081.80000	-0.0433	
1082.00000	-0.0438	
1082.20000	-0.0438	
1082.40000	-0.0439	
1082.60000	-0.0438	
1082.80000	-0.0439	
1083.00000	-0.0441	
1083.20000	-0.0441	
1083.40000	-0.0443	
1083.60000	-0.0443	
1083.80000	-0.0443	
1084.00000	-0.0443	
1084.20000	-0.0447	
1084.40000	-0.0449	
1084.60000	-0.0449	
1084.80000	-0.0450	
1085.00000	-0.0450	
1085.20000	-0.0452	
1085.40000	-0.0450	
1085.60000	-0.0449	
1085.80000	-0.0450	
1086.00000	-0.0447	
1086.20000	-0.0447	
1086.40000	-0.0446	
1086.60000	-0.0447	
1086.80000	-0.0447	
1087.00000	-0.0447	
1087.20000	-0.0449	
1087.40000	-0.0447	
1087.60000	-0.0450	
1087.80000	-0.0449	
1088.00000	-0.0444	
1088.20000	-0.0447	
1088.40000	-0.0444	
1088.60000	-0.0443	
1088.80000	-0.0443	
1089.00000	-0.0438	
1089.20000	-0.0438	
1089.40000	-0.0438	
1089.60000	-0.0438	
1089.80000	-0.0438	
1090.00000	-0.0438	
1090.20000	-0.0430	
1090.40000	-0.0432	
1090.60000	-0.0427	
1090.80000	-0.0432	
1091.00000	-0.0426	
1091.20000	-0.0423	
1091.40000	-0.0421	
1091.60000	-0.0423	
1091.80000	-0.0420	
1092.00000	-0.0420	
1092.20000	-0.0420	
1092.40000	-0.0421	
1092.60000	-0.0424	
1092.80000	-0.0421	
1093.00000	-0.0421	
1093.20000	-0.0421	
1093.40000	-0.0421	
1093.60000	-0.0421	
1093.80000	-0.0418	
1094.00000	-0.0420	
1094.20000	-0.0420	
1094.40000	-0.0421	
1094.60000	-0.0420	
1094.80000	-0.0421	
1095.00000	-0.0421	
1095.20000	-0.0420	
1095.40000	-0.0423	
1095.60000	-0.0426	
1095.80000	-0.0427	
1096.00000	-0.0427	
1096.20000	-0.0429	
1096.40000	-0.0432	
1096.60000	-0.0433	
1096.80000	-0.0438	
1097.00000	-0.0433	
1097.20000	-0.0433	
1097.40000	-0.0438	
1097.60000	-0.0433	
1097.80000	-0.0433	
1098.00000	-0.0438	
1098.20000	-0.0441	
1098.40000	-0.0439	
1098.60000	-0.0439	
1098.80000	-0.0444	
1099.00000	-0.0446	
1099.20000	-0.0446	
1099.40000	-0.0444	
1099.60000	-0.0447	
1099.80000	-0.0447	
1100.00000	-0.0447	
1100.20000	-0.0444	
1100.40000	-0.0449	
1100.60000	-0.0449	
1100.80000	-0.0446	
1101.00000	-0.0452	
1101.20000	-0.0450	
1101.40000	-0.0450	
1101.60000	-0.0450	
1101.80000	-0.0452	
1102.00000	-0.0449	
1102.20000	-0.0449	
1102.40000	-0.0447	
1102.60000	-0.0444	
1102.80000	-0.0447	
1103.00000	-0.0444	
1103.20000	-0.0444	
1103.40000	-0.0444	
1103.60000	-0.0446	
1103.80000	-0.0446	
1104.00000	-0.0443	
1104.20000	-0.0444	
1104.40000	-0.0447	
1104.60000	-0.0447	
1104.80000	-0.0444	
1105.00000	-0.0443	
1105.20000	-0.0441	
1105.40000	-0.0443	
1105.60000	-0.0443	
1105.80000	-0.0441	
1106.00000	-0.0441	
1106.20000	-0.0441	
1106.40000	-0.0443	
1106.60000	-0.0441	
1106.80000	-0.0441	
1107.00000	-0.0438	
1107.20000	-0.0439	
1107.40000	-0.0441	
1107.60000	-0.0433	
1107.80000	-0.0433	
1108.00000	-0.0433	
1108.20000	-0.0430	
1108.40000	-0.0430	
1108.60000	-0.0429	
1108.80000	-0.0429	
1109.00000	-0.0424	
1109.20000	-0.0426	
1109.40000	-0.0424	
1109.60000	-0.0424	
1109.80000	-0.0423	
1110.00000	-0.0421	
1110.20000	-0.0421	
1110.40000	-0.0418	
1110.60000	-0.0420	
1110.80000	-0.0421	
1111.00000	-0.0420	
1111.20000	-0.0418	
1111.40000	-0.0417	
1111.60000	-0.0418	
1111.80000	-0.0420	
1112.00000	-0.0421	
1112.20000	-0.0421	
1112.40000	-0.0423	
1112.60000	-0.0424	
1112.80000	-0.0430	
1113.00000	-0.0424	
1113.20000	-0.0426	
1113.40000	-0.0426	
1113.60000	-0.0427	
1113.80000	-0.0424	
1114.00000	-0.0424	
1114.20000	-0.0427	
1114.40000	-0.0426	
1114.60000	-0.0426	
1114.80000	-0.0430	
1115.00000	-0.0429	
1115.20000	-0.0432	
1115.40000	-0.0433	
1115.60000	-0.0436	
1115.80000	-0.0438	
1116.00000	-0.0441	
1116.20000	-0.0443	
1116.40000	-0.0443	
1116.60000	-0.0444	
1116.80000	-0.0444	
1117.00000	-0.0449	
1117.20000	-0.0447	
1117.40000	-0.0449	
1117.60000	-0.0450	
1117.80000	-0.0452	
1118.00000	-0.0452	
1118.20000	-0.0453	
1118.40000	-0.0453	
1118.60000	-0.0452	
1118.80000	-0.0452	
1119.00000	-0.0453	
1119.20000	-0.0450	
1119.40000	-0.0450	
1119.60000	-0.0449	
1119.80000	-0.0449	
1120.00000	-0.0446	
1120.20000	-0.0449	
1120.40000	-0.0446	
1120.60000	-0.0446	
1120.80000	-0.0444	
1121.00000	-0.0449	
1121.20000	-0.0447	
1121.40000	-0.0449	
1121.60000	-0.0446	
1121.80000	-0.0446	
1122.00000	-0.0446	
1122.20000	-0.0444	
1122.40000	-0.0447	
1122.60000	-0.0446	
1122.80000	-0.0446	
1123.00000	-0.0443	
1123.20000	-0.0441	
1123.40000	-0.0444	
1123.60000	-0.0439	
1123.80000	-0.0439	
1124.00000	-0.0438	
1124.20000	-0.0436	
1124.40000	-0.0433	
1124.60000	-0.0432	
1124.80000	-0.0429	
1125.00000	-0.0426	
1125.20000	-0.0424	
1125.40000	-0.0424	
1125.60000	-0.0420	
1125.80000	-0.0423	
1126.00000	-0.0423	
1126.20000	-0.0421	
1126.40000	-0.0421	
1126.60000	-0.0421	
1126.80000	-0.0420	
1127.00000	-0.0421	
1127.20000	-0.0421	
1127.40000	-0.0420	
1127.60000	-0.0420	
1127.80000	-0.0420	
1128.00000	-0.0420	
1128.20000	-0.0421	
1128.40000	-0.0421	
1128.60000	-0.0421	
1128.80000	-0.0423	
1129.00000	-0.0421	
1129.20000	-0.0424	
1129.40000	-0.0426	
1129.60000	-0.0427	
1129.80000	-0.0429	
1130.00000	-0.0429	
1130.20000	-0.0427	
1130.40000	-0.0430	
1130.60000	-0.0429	
1130.80000	-0.0426	
1131.00000	-0.0426	
1131.20000	-0.0432	
1131.40000	-0.0427	
1131.60000	-0.0432	
1131.80000	-0.0430	
1132.00000	-0.0432	
1132.20000	-0.0430	
1132.40000	-0.0433	
1132.60000	-0.0438	
1132.80000	-0.0438	
1133.00000	-0.0439	
1133.20000	-0.0438	
1133.40000	-0.0439	
1133.60000	-0.0439	
1133.80000	-0.0443	
1134.00000	-0.0444	
1134.20000	-0.0447	
1134.40000	-0.0449	
1134.60000	-0.0447	
1134.80000	-0.0453	
1135.00000	-0.0450	
1135.20000	-0.0449	
1135.40000	-0.0450	
1135.60000	-0.0452	
1135.80000	-0.0450	
1136.00000	-0.0449	
1136.20000	-0.0450	
1136.40000	-0.0452	
1136.60000	-0.0449	
1136.80000	-0.0450	
1137.00000	-0.0447	
1137.20000	-0.0447	
1137.40000	-0.0446	
1137.60000	-0.0446	
1137.80000	-0.0447	
1138.00000	-0.0443	
1138.20000	-0.0439	
1138.40000	-0.0441	
1138.60000	-0.0438	
1138.80000	-0.0438	
1139.00000	-0.0436	
1139.20000	-0.0438	
1139.40000	-0.0438	
1139.60000	-0.0436	
1139.80000	-0.0430	
1140.00000	-0.0429	
1140.20000	-0.0432	
1140.40000	-0.0429	
1140.60000	-0.0426	
1140.80000	-0.0426	
1141.00000	-0.0424	
1141.20000	-0.0423	
1141.40000	-0.0421	
1141.60000	-0.0424	
1141.80000	-0.0421	
1142.00000	-0.0420	
1142.20000	-0.0420	
1142.40000	-0.0421	
1142.60000	-0.0418	
1142.80000	-0.0421	
1143.00000	-0.0418	
1143.20000	-0.0421	
1143.40000	-0.0420	
1143.60000	-0.0417	
1143.80000	-0.0418	
1144.00000	-0.0418	
1144.20000	-0.0417	
1144.40000	-0.0418	
1144.60000	-0.0418	
1144.80000	-0.0421	
1145.00000	-0.0420	
1145.20000	-0.0417	
1145.40000	-0.0423	
1145.60000	-0.0424	
1145.80000	-0.0423	
1146.00000	-0.0426	
1146.20000	-0.0426	
1146.40000	-0.0427	
1146.60000	-0.0427	
1146.80000	-0.0427	
1147.00000	-0.0430	
1147.20000	-0.0429	
1147.40000	-0.0430	
1147.60000	-0.0430	
1147.80000	-0.0433	
1148.00000	-0.0438	
1148.20000	-0.0438	
1148.40000	-0.0439	
1148.60000	-0.0441	
1148.80000	-0.0441	
1149.00000	-0.0441	
1149.20000	-0.0443	
1149.40000	-0.0446	
1149.60000	-0.0446	
1149.80000	-0.0443	
1150.00000	-0.0446	
1150.20000	-0.0447	
1150.40000	-0.0449	
1150.60000	-0.0447	
1150.80000	-0.0447	
1151.00000	-0.0450	
1151.20000	-0.0452	
1151.40000	-0.0453	
1151.60000	-0.0450	
1151.80000	-0.0452	
1152.00000	-0.0452	
1152.20000	-0.0450	
1152.40000	-0.0450	
1152.60000	-0.0447	
1152.80000	-0.0449	
1153.00000	-0.0449	
1153.20000	-0.0449	
1153.40000	-0.0449	
1153.60000	-0.0446	
1153.80000	-0.0444	
1154.00000	-0.0447	
1154.20000	-0.0446	
1154.40000	-0.0446	
1154.60000	-0.0443	
1154.80000	-0.0443	
1155.00000	-0.0441	
1155.20000	-0.0439	
1155.40000	-0.0436	
1155.60000	-0.0438	
1155.80000	-0.0433	
1156.00000	-0.0433	
1156.20000	-0.0433	
1156.40000	-0.0430	
1156.60000	-0.0436	
1156.80000	-0.0430	
1157.00000	-0.0429	
1157.20000	-0.0427	
1157.40000	-0.0426	
1157.60000	-0.0426	
1157.80000	-0.0423	
1158.00000	-0.0423	
1158.20000	-0.0424	
1158.40000	-0.0421	
1158.60000	-0.0423	
1158.80000	-0.0420	
1159.00000	-0.0420	
1159.20000	-0.0423	
1159.40000	-0.0423	
1159.60000	-0.0423	
1159.80000	-0.0424	
1160.00000	-0.0424	
1160.20000	-0.0426	
1160.40000	-0.0426	
1160.60000	-0.0426	
1160.80000	-0.0426	
1161.00000	-0.0426	
1161.20000	-0.0426	
1161.40000	-0.0430	
1161.60000	-0.0429	
1161.80000	-0.0430	
1162.00000	-0.0432	
1162.20000	-0.0433	
1162.40000	-0.0438	
1162.60000	-0.0439	
1162.80000	-0.0438	
1163.00000	-0.0438	
1163.20000	-0.0441	
1163.40000	-0.0438	
1163.60000	-0.0438	
1163.80000	-0.0439	
1164.00000	-0.0441	
1164.20000	-0.0439	
1164.40000	-0.0441	
1164.60000	-0.0444	
1164.80000	-0.0444	
1165.00000	-0.0447	
1165.20000	-0.0447	
1165.40000	-0.0447	
1165.60000	-0.0446	
1165.80000	-0.0450	
1166.00000	-0.0449	
1166.20000	-0.0449	
1166.40000	-0.0447	
1166.60000	-0.0450	
1166.80000	-0.0453	
1167.00000	-0.0453	
1167.20000	-0.0453	
1167.40000	-0.0453	
1167.60000	-0.0455	
1167.80000	-0.0462	
1168.00000	-0.0461	
1168.20000	-0.0459	
1168.40000	-0.0459	
1168.60000	-0.0459	
1168.80000	-0.0459	
1169.00000	-0.0459	
1169.20000	-0.0459	
1169.40000	-0.0461	
1169.60000	-0.0461	
1169.80000	-0.0458	
1170.00000	-0.0453	
1170.20000	-0.0453	
1170.40000	-0.0450	
1170.60000	-0.0452	
1170.80000	-0.0449	
1171.00000	-0.0450	
1171.20000	-0.0450	
1171.40000	-0.0446	
1171.60000	-0.0446	
1171.80000	-0.0444	
1172.00000	-0.0444	
1172.20000	-0.0443	
1172.40000	-0.0443	
1172.60000	-0.0444	
1172.80000	-0.0441	
1173.00000	-0.0441	
1173.20000	-0.0443	
1173.40000	-0.0438	
1173.60000	-0.0438	
1173.80000	-0.0436	
1174.00000	-0.0432	
1174.20000	-0.0430	
1174.40000	-0.0430	
1174.60000	-0.0429	
1174.80000	-0.0429	
1175.00000	-0.0432	
1175.20000	-0.0427	
1175.40000	-0.0427	
1175.60000	-0.0424	
1175.80000	-0.0424	
1176.00000	-0.0423	
1176.20000	-0.0423	
1176.40000	-0.0426	
1176.60000	-0.0421	
1176.80000	-0.0420	
1177.00000	-0.0420	
1177.20000	-0.0421	
1177.40000	-0.0417	
1177.60000	-0.0418	
1177.80000	-0.0420	
1178.00000	-0.0417	
1178.20000	-0.0415	
1178.40000	-0.0417	
1178.60000	-0.0417	
1178.80000	-0.0415	
1179.00000	-0.0418	
1179.20000	-0.0418	
1179.40000	-0.0421	
1179.60000	-0.0420	
1179.80000	-0.0420	
1180.00000	-0.0423	
1180.20000	-0.0421	
1180.40000	-0.0421	
1180.60000	-0.0421	
1180.80000	-0.0423	
1181.00000	-0.0423	
1181.20000	-0.0424	
1181.40000	-0.0424	
1181.60000	-0.0426	
1181.80000	-0.0426	
1182.00000	-0.0427	
1182.20000	-0.0427	
1182.40000	-0.0430	
1182.60000	-0.0432	
1182.80000	-0.0430	
1183.00000	-0.0430	
1183.20000	-0.0436	
1183.40000	-0.0438	
1183.60000	-0.0438	
1183.80000	-0.0438	
1184.00000	-0.0438	
1184.20000	-0.0436	
1184.40000	-0.0439	
1184.60000	-0.0439	
1184.80000	-0.0439	
1185.00000	-0.0439	
1185.20000	-0.0439	
1185.40000	-0.0443	
1185.60000	-0.0441	
1185.80000	-0.0443	
1186.00000	-0.0441	
1186.20000	-0.0441	
1186.40000	-0.0443	
1186.60000	-0.0441	
1186.80000	-0.0441	
1187.00000	-0.0441	
1187.20000	-0.0438	
1187.40000	-0.0433	
1187.60000	-0.0436	
1187.80000	-0.0436	
1188.00000	-0.0436	
1188.20000	-0.0436	
1188.40000	-0.0433	
1188.60000	-0.0432	
1188.80000	-0.0430	
1189.00000	-0.0432	
1189.20000	-0.0430	
1189.40000	-0.0429	
1189.60000	-0.0426	
1189.80000	-0.0429	
1190.00000	-0.0423	
1190.20000	-0.0426	
1190.40000	-0.0421	
1190.60000	-0.0421	
1190.80000	-0.0420	
1191.00000	-0.0417	
1191.20000	-0.0412	
1191.40000	-0.0420	
1191.60000	-0.0418	
1191.80000	-0.0420	
1192.00000	-0.0417	
1192.20000	-0.0417	
1192.40000	-0.0420	
1192.60000	-0.0421	
1192.80000	-0.0421	
1193.00000	-0.0421	
1193.20000	-0.0423	
1193.40000	-0.0420	
1193.60000	-0.0420	
1193.80000	-0.0420	
1194.00000	-0.0420	
1194.20000	-0.0421	
1194.40000	-0.0421	
1194.60000	-0.0420	
1194.80000	-0.0421	
1195.00000	-0.0421	
1195.20000	-0.0424	
1195.40000	-0.0423	
1195.60000	-0.0426	
1195.80000	-0.0426	
1196.00000	-0.0427	
1196.20000	-0.0430	
1196.40000	-0.0429	
1196.60000	-0.0432	
1196.80000	-0.0433	
1197.00000	-0.0436	
1197.20000	-0.0432	
1197.40000	-0.0432	
1197.60000	-0.0433	
1197.80000	-0.0436	
1198.00000	-0.0438	
1198.20000	-0.0438	
1198.40000	-0.0438	
1198.60000	-0.0438	
1198.80000	-0.0439	
1199.00000	-0.0436	
1199.20000	-0.0439	
1199.40000	-0.0443	
1199.60000	-0.0443	
1199.80000	-0.0444	
1200.00000	-0.0447	
1200.20000	-0.0447	
1200.40000	-0.0449	
1200.60000	-0.0449	
1200.80000	-0.0450	
1201.00000	-0.0450	
1201.20000	-0.0450	
1201.40000	-0.0452	
1201.60000	-0.0452	
1201.80000	-0.0452	
1202.00000	-0.0452	
1202.20000	-0.0452	
1202.40000	-0.0450	
1202.60000	-0.0449	
1202.80000	-0.0449	
1203.00000	-0.0449	
1203.20000	-0.0447	
1203.40000	-0.0447	
1203.60000	-0.0444	
1203.80000	-0.0443	
1204.00000	-0.0441	
1204.20000	-0.0439	
1204.40000	-0.0443	
1204.60000	-0.0439	
1204.80000	-0.0439	
1205.00000	-0.0439	
1205.20000	-0.0436	
1205.40000	-0.0438	
1205.60000	-0.0439	
1205.80000	-0.0439	
1206.00000	-0.0439	
1206.20000	-0.0441	
1206.40000	-0.0439	
1206.60000	-0.0436	
1206.80000	-0.0438	
1207.00000	-0.0433	
1207.20000	-0.0432	
1207.40000	-0.0432	
1207.60000	-0.0427	
1207.80000	-0.0426	
1208.00000	-0.0426	
1208.20000	-0.0424	
1208.40000	-0.0421	
1208.60000	-0.0423	
1208.80000	-0.0421	
1209.00000	-0.0421	
1209.20000	-0.0421	
1209.40000	-0.0423	
1209.60000	-0.0420	
1209.80000	-0.0423	
1210.00000	-0.0421	
1210.20000	-0.0423	
1210.40000	-0.0421	
1210.60000	-0.0424	
1210.80000	-0.0421	
1211.00000	-0.0423	
1211.20000	-0.0423	
1211.40000	-0.0426	
1211.60000	-0.0423	
1211.80000	-0.0426	
1212.00000	-0.0424	
1212.20000	-0.0426	
1212.40000	-0.0427	
1212.60000	-0.0427	
1212.80000	-0.0430	
1213.00000	-0.0430	
1213.20000	-0.0432	
1213.40000	-0.0436	
1213.60000	-0.0436	
1213.80000	-0.0436	
1214.00000	-0.0436	
1214.20000	-0.0436	
1214.40000	-0.0438	
1214.60000	-0.0439	
1214.80000	-0.0439	
1215.00000	-0.0438	
1215.20000	-0.0441	
1215.40000	-0.0441	
1215.60000	-0.0441	
1215.80000	-0.0443	
1216.00000	-0.0444	
1216.20000	-0.0444	
1216.40000	-0.0443	
1216.60000	-0.0444	
1216.80000	-0.0444	
1217.00000	-0.0447	
1217.20000	-0.0447	
1217.40000	-0.0447	
1217.60000	-0.0447	
1217.80000	-0.0447	
1218.00000	-0.0449	
1218.20000	-0.0447	
1218.40000	-0.0450	
1218.60000	-0.0449	
1218.80000	-0.0446	
1219.00000	-0.0446	
1219.20000	-0.0447	
1219.40000	-0.0446	
1219.60000	-0.0443	
1219.80000	-0.0441	
1220.00000	-0.0438	
1220.20000	-0.0436	
1220.40000	-0.0436	
1220.60000	-0.0438	
1220.80000	-0.0436	
1221.00000	-0.0433	
1221.20000	-0.0433	
1221.40000	-0.0432	
1221.60000	-0.0432	
1221.80000	-0.0432	
1222.00000	-0.0432	
1222.20000	-0.0432	
1222.40000	-0.0430	
1222.60000	-0.0430	
1222.80000	-0.0427	
1223.00000	-0.0426	
1223.20000	-0.0427	
1223.40000	-0.0427	
1223.60000	-0.0426	
1223.80000	-0.0424	
1224.00000	-0.0423	
1224.20000	-0.0423	
1224.40000	-0.0423	
1224.60000	-0.0423	
1224.80000	-0.0418	
1225.00000	-0.0418	
1225.20000	-0.0418	
1225.40000	-0.0418	
1225.60000	-0.0415	
1225.80000	-0.0412	
1226.00000	-0.0410	
1226.20000	-0.0412	
1226.40000	-0.0412	
1226.60000	-0.0412	
1226.80000	-0.0412	
1227.00000	-0.0412	
1227.20000	-0.0410	
1227.40000	-0.0412	
1227.60000	-0.0418	
1227.80000	-0.0410	
1228.00000	-0.0412	
1228.20000	-0.0415	
1228.40000	-0.0418	
1228.60000	-0.0415	
1228.80000	-0.0418	
1229.00000	-0.0421	
1229.20000	-0.0421	
1229.40000	-0.0424	
1229.60000	-0.0424	
1229.80000	-0.0426	
1230.00000	-0.0426	
1230.20000	-0.0426	
1230.40000	-0.0424	
1230.60000	-0.0426	
1230.80000	-0.0427	
1231.00000	-0.0427	
1231.20000	-0.0429	
1231.40000	-0.0429	
1231.60000	-0.0430	
1231.80000	-0.0430	
1232.00000	-0.0432	
1232.20000	-0.0436	
1232.40000	-0.0438	
1232.60000	-0.0433	
1232.80000	-0.0441	
1233.00000	-0.0439	
1233.20000	-0.0439	
1233.40000	-0.0441	
1233.60000	-0.0439	
1233.80000	-0.0441	
1234.00000	-0.0441	
1234.20000	-0.0439	
1234.40000	-0.0447	
1234.60000	-0.0447	
1234.80000	-0.0447	
1235.00000	-0.0447	
1235.20000	-0.0446	
1235.40000	-0.0447	
1235.60000	-0.0449	
1235.80000	-0.0447	
1236.00000	-0.0446	
1236.20000	-0.0446	
1236.40000	-0.0444	
1236.60000	-0.0446	
1236.80000	-0.0447	
1237.00000	-0.0443	
