______________________	______________________	______________________	______________________	______________________	______________________	______________________	______________________	______________________	
data file :	C:\emka\iox_2_9_5_73\data\20190517-piga.mkt
saved on :	
______________________	______________________	______________________	______________________	______________________	______________________	______________________	______________________	______________________	
printed on :	june   6, 2019, at  11: 11: 16
export mode :	to text file
print author :	no_logged_user
print com :	no available comment
ecgAuto version :	3.3.5.6 []
original sample freq (Hz) :
	 ECG	5000
	 Pig Aortic Pressure	1000
	 Cam Fire	500
	 Bloom A	500
	 Bloom B	500
	 CFR	1000
undersampling factor :		1
print sample freq (Hz) :		5000
______________________	______________________	______________________	______________________	______________________	______________________	______________________	______________________	______________________	

time ms	 ECG	
	V	


...................	...................	...................	...................	...................	...................	...................	...................	...................	...................	...................	...................	...................	
zone-start :	exp_JoVE-AVNERP	time duration s :	00.00000	data duration s :	15.00000	stream section :	1
in-period :	op 1, p 1, r 1, p[r] 1	Noname #1	0.00e+00	
start period-time :	  00:54:51.985
start CPU time :	may  17, 2019, 14: 11: 39
start site-time :	  00:54:51.986
...................	...................	...................	...................	...................	...................	...................	...................	...................	...................	...................	...................	...................	
0.20000	-0.1082	
0.40000	-0.1080	
0.60000	-0.1077	
0.80000	-0.1077	
1.00000	-0.1076	
1.20000	-0.1076	
1.40000	-0.1077	
1.60000	-0.1079	
1.80000	-0.1079	
2.00000	-0.1079	
2.20000	-0.1080	
2.40000	-0.1083	
2.60000	-0.1085	
2.80000	-0.1085	
3.00000	-0.1083	
3.20000	-0.1085	
3.40000	-0.1079	
3.60000	-0.1079	
3.80000	-0.1077	
4.00000	-0.1074	
4.20000	-0.1070	
4.40000	-0.1067	
4.60000	-0.1065	
4.80000	-0.1060	
5.00000	-0.1059	
5.20000	-0.1053	
5.40000	-0.1047	
5.60000	-0.1045	
5.80000	-0.1041	
6.00000	-0.1039	
6.20000	-0.1033	
6.40000	-0.1024	
6.60000	-0.1024	
6.80000	-0.1019	
7.00000	-0.1012	
7.20000	-0.1006	
7.40000	-0.1003	
7.60000	-0.0999	
7.80000	-0.0993	
8.00000	-0.0987	
8.20000	-0.0981	
8.40000	-0.0972	
8.60000	-0.0967	
8.80000	-0.0961	
9.00000	-0.0958	
9.20000	-0.0955	
9.40000	-0.0946	
9.60000	-0.0938	
9.80000	-0.0934	
10.00000	-0.0934	
10.20000	-0.0928	
10.40000	-0.0919	
10.60000	-0.0914	
10.80000	-0.0908	
11.00000	-0.0899	
11.20000	-0.0893	
11.40000	-0.0885	
11.60000	-0.0883	
11.80000	-0.0877	
12.00000	-0.0870	
12.20000	-0.0867	
12.40000	-0.0862	
12.60000	-0.0861	
12.80000	-0.0856	
13.00000	-0.0851	
13.20000	-0.0848	
13.40000	-0.0836	
13.60000	-0.0835	
13.80000	-0.0830	
14.00000	-0.0826	
14.20000	-0.0821	
14.40000	-0.0815	
14.60000	-0.0813	
14.80000	-0.0813	
15.00000	-0.0807	
15.20000	-0.0806	
15.40000	-0.0804	
15.60000	-0.0803	
15.80000	-0.0797	
16.00000	-0.0798	
16.20000	-0.0797	
16.40000	-0.0792	
16.60000	-0.0787	
16.80000	-0.0790	
17.00000	-0.0786	
17.20000	-0.0783	
17.40000	-0.0783	
17.60000	-0.0781	
17.80000	-0.0778	
18.00000	-0.0775	
18.20000	-0.0772	
18.40000	-0.0771	
18.60000	-0.0769	
18.80000	-0.0768	
19.00000	-0.0764	
19.20000	-0.0768	
19.40000	-0.0761	
19.60000	-0.0758	
19.80000	-0.0760	
20.00000	-0.0755	
20.20000	-0.0752	
20.40000	-0.0751	
20.60000	-0.0746	
20.80000	-0.0743	
21.00000	-0.0739	
21.20000	-0.0735	
21.40000	-0.0728	
21.60000	-0.0725	
21.80000	-0.0723	
22.00000	-0.0719	
22.20000	-0.0716	
22.40000	-0.0708	
22.60000	-0.0708	
22.80000	-0.0702	
23.00000	-0.0699	
23.20000	-0.0696	
23.40000	-0.0693	
23.60000	-0.0685	
23.80000	-0.0682	
24.00000	-0.0677	
24.20000	-0.0671	
24.40000	-0.0671	
24.60000	-0.0667	
24.80000	-0.0656	
25.00000	-0.0653	
25.20000	-0.0648	
25.40000	-0.0644	
25.60000	-0.0641	
25.80000	-0.0633	
26.00000	-0.0629	
26.20000	-0.0620	
26.40000	-0.0615	
26.60000	-0.0610	
26.80000	-0.0606	
27.00000	-0.0598	
27.20000	-0.0592	
27.40000	-0.0589	
27.60000	-0.0581	
27.80000	-0.0575	
28.00000	-0.0571	
28.20000	-0.0566	
28.40000	-0.0565	
28.60000	-0.0558	
28.80000	-0.0551	
29.00000	-0.0546	
29.20000	-0.0545	
29.40000	-0.0540	
29.60000	-0.0537	
29.80000	-0.0533	
30.00000	-0.0531	
30.20000	-0.0528	
30.40000	-0.0525	
30.60000	-0.0519	
30.80000	-0.0519	
31.00000	-0.0517	
31.20000	-0.0514	
31.40000	-0.0511	
31.60000	-0.0510	
31.80000	-0.0510	
32.00000	-0.0507	
32.20000	-0.0507	
32.40000	-0.0504	
32.60000	-0.0500	
32.80000	-0.0505	
33.00000	-0.0505	
33.20000	-0.0502	
33.40000	-0.0504	
33.60000	-0.0504	
33.80000	-0.0496	
34.00000	-0.0497	
34.20000	-0.0497	
34.40000	-0.0497	
34.60000	-0.0493	
34.80000	-0.0496	
35.00000	-0.0497	
35.20000	-0.0493	
35.40000	-0.0493	
35.60000	-0.0494	
35.80000	-0.0496	
36.00000	-0.0494	
36.20000	-0.0493	
36.40000	-0.0490	
36.60000	-0.0485	
36.80000	-0.0487	
37.00000	-0.0482	
37.20000	-0.0479	
37.40000	-0.0476	
37.60000	-0.0473	
37.80000	-0.0468	
38.00000	-0.0468	
38.20000	-0.0464	
38.40000	-0.0461	
38.60000	-0.0458	
38.80000	-0.0458	
39.00000	-0.0452	
39.20000	-0.0450	
39.40000	-0.0450	
39.60000	-0.0444	
39.80000	-0.0441	
40.00000	-0.0439	
40.20000	-0.0436	
40.40000	-0.0429	
40.60000	-0.0427	
40.80000	-0.0427	
41.00000	-0.0421	
41.20000	-0.0420	
41.40000	-0.0418	
41.60000	-0.0415	
41.80000	-0.0407	
42.00000	-0.0404	
42.20000	-0.0403	
42.40000	-0.0400	
42.60000	-0.0388	
42.80000	-0.0389	
43.00000	-0.0385	
43.20000	-0.0385	
43.40000	-0.0381	
43.60000	-0.0377	
43.80000	-0.0372	
44.00000	-0.0372	
44.20000	-0.0363	
44.40000	-0.0359	
44.60000	-0.0354	
44.80000	-0.0352	
45.00000	-0.0346	
45.20000	-0.0340	
45.40000	-0.0336	
45.60000	-0.0334	
45.80000	-0.0327	
46.00000	-0.0327	
46.20000	-0.0323	
46.40000	-0.0322	
46.60000	-0.0320	
46.80000	-0.0316	
47.00000	-0.0310	
47.20000	-0.0311	
47.40000	-0.0310	
47.60000	-0.0304	
47.80000	-0.0304	
48.00000	-0.0305	
48.20000	-0.0302	
48.40000	-0.0310	
48.60000	-0.0307	
48.80000	-0.0307	
49.00000	-0.0310	
49.20000	-0.0311	
49.40000	-0.0313	
49.60000	-0.0314	
49.80000	-0.0319	
50.00000	-0.0317	
50.20000	-0.0319	
50.40000	-0.0323	
50.60000	-0.0327	
50.80000	-0.0333	
51.00000	-0.0334	
51.20000	-0.0334	
51.40000	-0.0340	
51.60000	-0.0342	
51.80000	-0.0346	
52.00000	-0.0348	
52.20000	-0.0349	
52.40000	-0.0352	
52.60000	-0.0359	
52.80000	-0.0359	
53.00000	-0.0359	
53.20000	-0.0363	
53.40000	-0.0362	
53.60000	-0.0363	
53.80000	-0.0362	
54.00000	-0.0363	
54.20000	-0.0362	
54.40000	-0.0362	
54.60000	-0.0362	
54.80000	-0.0362	
55.00000	-0.0360	
55.20000	-0.0357	
55.40000	-0.0357	
55.60000	-0.0357	
55.80000	-0.0356	
56.00000	-0.0357	
56.20000	-0.0354	
56.40000	-0.0356	
56.60000	-0.0354	
56.80000	-0.0354	
57.00000	-0.0349	
57.20000	-0.0354	
57.40000	-0.0346	
57.60000	-0.0348	
57.80000	-0.0348	
58.00000	-0.0346	
58.20000	-0.0345	
58.40000	-0.0343	
58.60000	-0.0340	
58.80000	-0.0340	
59.00000	-0.0339	
59.20000	-0.0334	
59.40000	-0.0336	
59.60000	-0.0331	
59.80000	-0.0331	
60.00000	-0.0327	
60.20000	-0.0323	
60.40000	-0.0322	
60.60000	-0.0316	
60.80000	-0.0311	
61.00000	-0.0307	
61.20000	-0.0302	
61.40000	-0.0301	
61.60000	-0.0301	
61.80000	-0.0291	
62.00000	-0.0291	
62.20000	-0.0290	
62.40000	-0.0285	
62.60000	-0.0284	
62.80000	-0.0285	
63.00000	-0.0282	
63.20000	-0.0281	
63.40000	-0.0276	
63.60000	-0.0281	
63.80000	-0.0279	
64.00000	-0.0281	
64.20000	-0.0282	
64.40000	-0.0281	
64.60000	-0.0285	
64.80000	-0.0285	
65.00000	-0.0291	
65.20000	-0.0293	
65.40000	-0.0291	
65.60000	-0.0298	
65.80000	-0.0301	
66.00000	-0.0302	
66.20000	-0.0307	
66.40000	-0.0314	
66.60000	-0.0316	
66.80000	-0.0320	
67.00000	-0.0320	
67.20000	-0.0322	
67.40000	-0.0325	
67.60000	-0.0331	
67.80000	-0.0333	
68.00000	-0.0334	
68.20000	-0.0336	
68.40000	-0.0342	
68.60000	-0.0343	
68.80000	-0.0346	
69.00000	-0.0354	
69.20000	-0.0359	
69.40000	-0.0360	
69.60000	-0.0360	
69.80000	-0.0363	
70.00000	-0.0362	
70.20000	-0.0362	
70.40000	-0.0362	
70.60000	-0.0359	
70.80000	-0.0354	
71.00000	-0.0349	
71.20000	-0.0342	
71.40000	-0.0334	
71.60000	-0.0328	
71.80000	-0.0322	
72.00000	-0.0316	
72.20000	-0.0305	
72.40000	-0.0298	
72.60000	-0.0293	
72.80000	-0.0285	
73.00000	-0.0276	
73.20000	-0.0267	
73.40000	-0.0259	
73.60000	-0.0249	
73.80000	-0.0240	
74.00000	-0.0232	
74.20000	-0.0220	
74.40000	-0.0211	
74.60000	-0.0195	
74.80000	-0.0179	
75.00000	-0.0162	
75.20000	-0.0145	
75.40000	-0.0130	
75.60000	-0.0111	
75.80000	-0.0090	
76.00000	-0.0070	
76.20000	-0.0046	
76.40000	-0.0023	
76.60000	 0.0005	
76.80000	 0.0037	
77.00000	 0.0070	
77.20000	 0.0111	
77.40000	 0.0151	
77.60000	 0.0197	
77.80000	 0.0246	
78.00000	 0.0298	
78.20000	 0.0351	
78.40000	 0.0407	
78.60000	 0.0465	
78.80000	 0.0523	
79.00000	 0.0580	
79.20000	 0.0641	
79.40000	 0.0702	
79.60000	 0.0771	
79.80000	 0.0844	
80.00000	 0.0916	
80.20000	 0.0996	
80.40000	 0.1079	
80.60000	 0.1161	
80.80000	 0.1247	
81.00000	 0.1329	
81.20000	 0.1411	
81.40000	 0.1489	
81.60000	 0.1572	
81.80000	 0.1649	
82.00000	 0.1729	
82.20000	 0.1799	
82.40000	 0.1874	
82.60000	 0.1947	
82.80000	 0.2020	
83.00000	 0.2090	
83.20000	 0.2159	
83.40000	 0.2225	
83.60000	 0.2290	
83.80000	 0.2354	
84.00000	 0.2408	
84.20000	 0.2455	
84.40000	 0.2493	
84.60000	 0.2533	
84.80000	 0.2565	
85.00000	 0.2591	
85.20000	 0.2615	
85.40000	 0.2626	
85.60000	 0.2628	
85.80000	 0.2623	
86.00000	 0.2618	
86.20000	 0.2605	
86.40000	 0.2579	
86.60000	 0.2547	
86.80000	 0.2501	
87.00000	 0.2434	
87.20000	 0.2338	
87.40000	 0.2217	
87.60000	 0.2061	
87.80000	 0.1874	
88.00000	 0.1648	
88.20000	 0.1375	
88.40000	 0.1047	
88.60000	 0.0681	
88.80000	 0.0266	
89.00000	-0.0200	
89.20000	-0.0705	
89.40000	-0.1245	
89.60000	-0.1810	
89.80000	-0.2394	
90.00000	-0.2988	
90.20000	-0.3583	
90.40000	-0.4179	
90.60000	-0.4779	
90.80000	-0.5382	
91.00000	-0.5983	
91.20000	-0.6596	
91.40000	-0.7211	
91.60000	-0.7837	
91.80000	-0.8473	
92.00000	-0.9122	
92.20000	-0.9776	
92.40000	-1.0428	
92.60000	-1.1064	
92.80000	-1.1670	
93.00000	-1.2242	
93.20000	-1.2762	
93.40000	-1.3214	
93.60000	-1.3589	
93.80000	-1.3898	
94.00000	-1.4128	
94.20000	-1.4291	
94.40000	-1.4386	
94.60000	-1.4426	
94.80000	-1.4410	
95.00000	-1.4340	
95.20000	-1.4232	
95.40000	-1.4087	
95.60000	-1.3911	
95.80000	-1.3708	
96.00000	-1.3487	
96.20000	-1.3245	
96.40000	-1.2976	
96.60000	-1.2691	
96.80000	-1.2389	
97.00000	-1.2076	
97.20000	-1.1751	
97.40000	-1.1412	
97.60000	-1.1073	
97.80000	-1.0724	
98.00000	-1.0376	
98.20000	-1.0030	
98.40000	-0.9689	
98.60000	-0.9352	
98.80000	-0.9024	
99.00000	-0.8708	
99.20000	-0.8392	
99.40000	-0.8098	
99.60000	-0.7819	
99.80000	-0.7549	
100.00000	-0.7295	
100.20000	-0.7054	
100.40000	-0.6825	
100.60000	-0.6610	
100.80000	-0.6413	
101.00000	-0.6227	
101.20000	-0.6047	
101.40000	-0.5882	
101.60000	-0.5727	
101.80000	-0.5571	
102.00000	-0.5421	
102.20000	-0.5276	
102.40000	-0.5133	
102.60000	-0.4991	
102.80000	-0.4854	
103.00000	-0.4721	
103.20000	-0.4581	
103.40000	-0.4440	
103.60000	-0.4305	
103.80000	-0.4164	
104.00000	-0.4018	
104.20000	-0.3876	
104.40000	-0.3720	
104.60000	-0.3571	
104.80000	-0.3416	
105.00000	-0.3265	
105.20000	-0.3113	
105.40000	-0.2957	
105.60000	-0.2805	
105.80000	-0.2654	
106.00000	-0.2502	
106.20000	-0.2353	
106.40000	-0.2206	
106.60000	-0.2055	
106.80000	-0.1904	
107.00000	-0.1756	
107.20000	-0.1605	
107.40000	-0.1454	
107.60000	-0.1302	
107.80000	-0.1152	
108.00000	-0.1001	
108.20000	-0.0856	
108.40000	-0.0710	
108.60000	-0.0574	
108.80000	-0.0438	
109.00000	-0.0307	
109.20000	-0.0179	
109.40000	-0.0060	
109.60000	 0.0058	
109.80000	 0.0172	
110.00000	 0.0278	
110.20000	 0.0386	
110.40000	 0.0491	
110.60000	 0.0595	
110.80000	 0.0696	
111.00000	 0.0800	
111.20000	 0.0896	
111.40000	 0.0993	
111.60000	 0.1094	
111.80000	 0.1189	
112.00000	 0.1279	
112.20000	 0.1372	
112.40000	 0.1466	
112.60000	 0.1546	
112.80000	 0.1627	
113.00000	 0.1707	
113.20000	 0.1779	
113.40000	 0.1851	
113.60000	 0.1920	
113.80000	 0.1987	
114.00000	 0.2051	
114.20000	 0.2113	
114.40000	 0.2174	
114.60000	 0.2229	
114.80000	 0.2289	
115.00000	 0.2345	
115.20000	 0.2399	
115.40000	 0.2454	
115.60000	 0.2507	
115.80000	 0.2557	
116.00000	 0.2606	
116.20000	 0.2663	
116.40000	 0.2711	
116.60000	 0.2766	
116.80000	 0.2820	
117.00000	 0.2873	
117.20000	 0.2924	
117.40000	 0.2971	
117.60000	 0.3017	
117.80000	 0.3064	
118.00000	 0.3107	
118.20000	 0.3148	
118.40000	 0.3188	
118.60000	 0.3227	
118.80000	 0.3261	
119.00000	 0.3297	
119.20000	 0.3326	
119.40000	 0.3360	
119.60000	 0.3392	
119.80000	 0.3421	
120.00000	 0.3453	
120.20000	 0.3484	
120.40000	 0.3517	
120.60000	 0.3545	
120.80000	 0.3575	
121.00000	 0.3604	
121.20000	 0.3630	
121.40000	 0.3651	
121.60000	 0.3680	
121.80000	 0.3700	
122.00000	 0.3722	
122.20000	 0.3740	
122.40000	 0.3757	
122.60000	 0.3772	
122.80000	 0.3786	
123.00000	 0.3798	
123.20000	 0.3809	
123.40000	 0.3816	
123.60000	 0.3831	
123.80000	 0.3841	
124.00000	 0.3854	
124.20000	 0.3867	
124.40000	 0.3877	
124.60000	 0.3894	
124.80000	 0.3909	
125.00000	 0.3926	
125.20000	 0.3937	
125.40000	 0.3952	
125.60000	 0.3969	
125.80000	 0.3984	
126.00000	 0.4004	
126.20000	 0.4021	
126.40000	 0.4034	
126.60000	 0.4051	
126.80000	 0.4066	
127.00000	 0.4079	
127.20000	 0.4094	
127.40000	 0.4105	
127.60000	 0.4117	
127.80000	 0.4128	
128.00000	 0.4135	
128.20000	 0.4140	
128.40000	 0.4146	
128.60000	 0.4149	
128.80000	 0.4149	
129.00000	 0.4146	
129.20000	 0.4138	
129.40000	 0.4129	
129.60000	 0.4118	
129.80000	 0.4109	
130.00000	 0.4095	
130.20000	 0.4077	
130.40000	 0.4060	
130.60000	 0.4034	
130.80000	 0.4013	
131.00000	 0.3987	
131.20000	 0.3957	
131.40000	 0.3925	
131.60000	 0.3888	
131.80000	 0.3857	
132.00000	 0.3822	
132.20000	 0.3784	
132.40000	 0.3748	
132.60000	 0.3709	
132.80000	 0.3665	
133.00000	 0.3622	
133.20000	 0.3581	
133.40000	 0.3537	
133.60000	 0.3494	
133.80000	 0.3450	
134.00000	 0.3407	
134.20000	 0.3362	
134.40000	 0.3316	
134.60000	 0.3271	
134.80000	 0.3227	
135.00000	 0.3181	
135.20000	 0.3136	
135.40000	 0.3091	
135.60000	 0.3047	
135.80000	 0.3003	
136.00000	 0.2957	
136.20000	 0.2916	
136.40000	 0.2873	
136.60000	 0.2832	
136.80000	 0.2789	
137.00000	 0.2748	
137.20000	 0.2708	
137.40000	 0.2669	
137.60000	 0.2631	
137.80000	 0.2592	
138.00000	 0.2556	
138.20000	 0.2518	
138.40000	 0.2478	
138.60000	 0.2441	
138.80000	 0.2402	
139.00000	 0.2365	
139.20000	 0.2330	
139.40000	 0.2293	
139.60000	 0.2255	
139.80000	 0.2220	
140.00000	 0.2184	
140.20000	 0.2148	
140.40000	 0.2116	
140.60000	 0.2083	
140.80000	 0.2048	
141.00000	 0.2016	
141.20000	 0.1988	
141.40000	 0.1953	
141.60000	 0.1924	
141.80000	 0.1892	
142.00000	 0.1862	
142.20000	 0.1831	
142.40000	 0.1804	
142.60000	 0.1776	
142.80000	 0.1749	
143.00000	 0.1717	
143.20000	 0.1691	
143.40000	 0.1660	
143.60000	 0.1633	
143.80000	 0.1608	
144.00000	 0.1582	
144.20000	 0.1555	
144.40000	 0.1530	
144.60000	 0.1505	
144.80000	 0.1482	
145.00000	 0.1454	
145.20000	 0.1431	
145.40000	 0.1402	
145.60000	 0.1379	
145.80000	 0.1355	
146.00000	 0.1324	
146.20000	 0.1297	
146.40000	 0.1276	
146.60000	 0.1251	
146.80000	 0.1228	
147.00000	 0.1205	
147.20000	 0.1181	
147.40000	 0.1157	
147.60000	 0.1134	
147.80000	 0.1114	
148.00000	 0.1091	
148.20000	 0.1064	
148.40000	 0.1041	
148.60000	 0.1018	
148.80000	 0.0993	
149.00000	 0.0967	
149.20000	 0.0948	
149.40000	 0.0919	
149.60000	 0.0896	
149.80000	 0.0873	
150.00000	 0.0851	
150.20000	 0.0833	
150.40000	 0.0813	
150.60000	 0.0795	
150.80000	 0.0775	
151.00000	 0.0749	
151.20000	 0.0732	
151.40000	 0.0711	
151.60000	 0.0693	
151.80000	 0.0673	
152.00000	 0.0655	
152.20000	 0.0638	
152.40000	 0.0620	
152.60000	 0.0600	
152.80000	 0.0583	
153.00000	 0.0569	
153.20000	 0.0552	
153.40000	 0.0536	
153.60000	 0.0520	
153.80000	 0.0507	
154.00000	 0.0491	
154.20000	 0.0479	
154.40000	 0.0465	
154.60000	 0.0447	
154.80000	 0.0438	
155.00000	 0.0423	
155.20000	 0.0409	
155.40000	 0.0394	
155.60000	 0.0380	
155.80000	 0.0372	
156.00000	 0.0359	
156.20000	 0.0342	
156.40000	 0.0330	
156.60000	 0.0317	
156.80000	 0.0307	
157.00000	 0.0291	
157.20000	 0.0279	
157.40000	 0.0269	
157.60000	 0.0259	
157.80000	 0.0250	
158.00000	 0.0237	
158.20000	 0.0229	
158.40000	 0.0218	
158.60000	 0.0211	
158.80000	 0.0203	
159.00000	 0.0189	
159.20000	 0.0183	
159.40000	 0.0174	
159.60000	 0.0163	
159.80000	 0.0151	
160.00000	 0.0146	
160.20000	 0.0134	
160.40000	 0.0125	
160.60000	 0.0119	
160.80000	 0.0111	
161.00000	 0.0105	
161.20000	 0.0098	
161.40000	 0.0089	
161.60000	 0.0081	
161.80000	 0.0073	
162.00000	 0.0061	
162.20000	 0.0055	
162.40000	 0.0046	
162.60000	 0.0035	
162.80000	 0.0026	
163.00000	 0.0018	
163.20000	 0.0012	
163.40000	 0.0003	
163.60000	-0.0005	
163.80000	-0.0012	
164.00000	-0.0018	
164.20000	-0.0027	
164.40000	-0.0035	
164.60000	-0.0046	
164.80000	-0.0056	
165.00000	-0.0064	
165.20000	-0.0073	
165.40000	-0.0082	
165.60000	-0.0089	
165.80000	-0.0099	
166.00000	-0.0107	
166.20000	-0.0114	
166.40000	-0.0127	
166.60000	-0.0133	
166.80000	-0.0142	
167.00000	-0.0151	
167.20000	-0.0157	
167.40000	-0.0169	
167.60000	-0.0177	
167.80000	-0.0186	
168.00000	-0.0194	
168.20000	-0.0200	
168.40000	-0.0209	
168.60000	-0.0214	
168.80000	-0.0221	
169.00000	-0.0230	
169.20000	-0.0238	
169.40000	-0.0249	
169.60000	-0.0253	
169.80000	-0.0262	
170.00000	-0.0267	
170.20000	-0.0273	
170.40000	-0.0276	
170.60000	-0.0279	
170.80000	-0.0288	
171.00000	-0.0291	
171.20000	-0.0294	
171.40000	-0.0296	
171.60000	-0.0302	
171.80000	-0.0310	
172.00000	-0.0311	
172.20000	-0.0316	
172.40000	-0.0322	
172.60000	-0.0325	
172.80000	-0.0331	
173.00000	-0.0337	
173.20000	-0.0340	
173.40000	-0.0342	
173.60000	-0.0348	
173.80000	-0.0354	
174.00000	-0.0357	
174.20000	-0.0357	
174.40000	-0.0359	
174.60000	-0.0365	
174.80000	-0.0366	
175.00000	-0.0372	
175.20000	-0.0372	
175.40000	-0.0378	
175.60000	-0.0378	
175.80000	-0.0380	
176.00000	-0.0381	
176.20000	-0.0385	
176.40000	-0.0388	
176.60000	-0.0391	
176.80000	-0.0389	
177.00000	-0.0395	
177.20000	-0.0398	
177.40000	-0.0397	
177.60000	-0.0398	
177.80000	-0.0400	
178.00000	-0.0401	
178.20000	-0.0404	
178.40000	-0.0407	
178.60000	-0.0406	
178.80000	-0.0412	
179.00000	-0.0417	
179.20000	-0.0415	
179.40000	-0.0421	
179.60000	-0.0427	
179.80000	-0.0427	
180.00000	-0.0430	
180.20000	-0.0432	
180.40000	-0.0433	
180.60000	-0.0439	
180.80000	-0.0443	
181.00000	-0.0447	
181.20000	-0.0447	
181.40000	-0.0453	
181.60000	-0.0453	
181.80000	-0.0461	
182.00000	-0.0464	
182.20000	-0.0471	
182.40000	-0.0473	
182.60000	-0.0476	
182.80000	-0.0484	
183.00000	-0.0487	
183.20000	-0.0490	
183.40000	-0.0491	
183.60000	-0.0497	
183.80000	-0.0504	
184.00000	-0.0508	
184.20000	-0.0511	
184.40000	-0.0514	
184.60000	-0.0517	
184.80000	-0.0523	
185.00000	-0.0529	
185.20000	-0.0533	
185.40000	-0.0537	
185.60000	-0.0543	
185.80000	-0.0549	
186.00000	-0.0554	
186.20000	-0.0555	
186.40000	-0.0557	
186.60000	-0.0562	
186.80000	-0.0562	
187.00000	-0.0568	
187.20000	-0.0566	
187.40000	-0.0569	
187.60000	-0.0571	
187.80000	-0.0571	
188.00000	-0.0574	
188.20000	-0.0575	
188.40000	-0.0575	
188.60000	-0.0577	
188.80000	-0.0575	
189.00000	-0.0581	
189.20000	-0.0584	
189.40000	-0.0584	
189.60000	-0.0586	
189.80000	-0.0586	
190.00000	-0.0589	
190.20000	-0.0591	
190.40000	-0.0587	
190.60000	-0.0591	
190.80000	-0.0591	
191.00000	-0.0589	
191.20000	-0.0589	
191.40000	-0.0589	
191.60000	-0.0589	
191.80000	-0.0589	
192.00000	-0.0591	
192.20000	-0.0594	
192.40000	-0.0594	
192.60000	-0.0595	
192.80000	-0.0597	
193.00000	-0.0595	
193.20000	-0.0598	
193.40000	-0.0598	
193.60000	-0.0597	
193.80000	-0.0598	
194.00000	-0.0600	
194.20000	-0.0597	
194.40000	-0.0597	
194.60000	-0.0598	
194.80000	-0.0594	
195.00000	-0.0595	
195.20000	-0.0595	
195.40000	-0.0598	
195.60000	-0.0601	
195.80000	-0.0601	
196.00000	-0.0603	
196.20000	-0.0610	
196.40000	-0.0609	
196.60000	-0.0610	
196.80000	-0.0610	
197.00000	-0.0612	
197.20000	-0.0615	
197.40000	-0.0615	
197.60000	-0.0616	
197.80000	-0.0616	
198.00000	-0.0621	
198.20000	-0.0621	
198.40000	-0.0627	
198.60000	-0.0629	
198.80000	-0.0630	
199.00000	-0.0632	
199.20000	-0.0636	
199.40000	-0.0642	
199.60000	-0.0644	
199.80000	-0.0645	
200.00000	-0.0652	
200.20000	-0.0652	
200.40000	-0.0655	
200.60000	-0.0658	
200.80000	-0.0661	
201.00000	-0.0662	
201.20000	-0.0664	
201.40000	-0.0664	
201.60000	-0.0670	
201.80000	-0.0673	
202.00000	-0.0677	
202.20000	-0.0677	
202.40000	-0.0684	
202.60000	-0.0687	
202.80000	-0.0691	
203.00000	-0.0693	
203.20000	-0.0696	
203.40000	-0.0696	
203.60000	-0.0696	
203.80000	-0.0699	
204.00000	-0.0699	
204.20000	-0.0699	
204.40000	-0.0697	
204.60000	-0.0697	
204.80000	-0.0696	
205.00000	-0.0696	
205.20000	-0.0699	
205.40000	-0.0697	
205.60000	-0.0697	
205.80000	-0.0697	
206.00000	-0.0697	
206.20000	-0.0697	
206.40000	-0.0699	
206.60000	-0.0696	
206.80000	-0.0700	
207.00000	-0.0700	
207.20000	-0.0697	
207.40000	-0.0697	
207.60000	-0.0699	
207.80000	-0.0696	
208.00000	-0.0697	
208.20000	-0.0696	
208.40000	-0.0694	
208.60000	-0.0693	
208.80000	-0.0693	
209.00000	-0.0693	
209.20000	-0.0687	
209.40000	-0.0684	
209.60000	-0.0684	
209.80000	-0.0685	
210.00000	-0.0684	
210.20000	-0.0684	
210.40000	-0.0684	
210.60000	-0.0682	
210.80000	-0.0681	
211.00000	-0.0681	
211.20000	-0.0682	
211.40000	-0.0682	
211.60000	-0.0682	
211.80000	-0.0679	
212.00000	-0.0681	
212.20000	-0.0681	
212.40000	-0.0681	
212.60000	-0.0679	
212.80000	-0.0682	
213.00000	-0.0681	
213.20000	-0.0682	
213.40000	-0.0681	
213.60000	-0.0682	
213.80000	-0.0682	
214.00000	-0.0684	
214.20000	-0.0679	
214.40000	-0.0684	
214.60000	-0.0682	
214.80000	-0.0684	
215.00000	-0.0685	
215.20000	-0.0687	
215.40000	-0.0687	
215.60000	-0.0688	
215.80000	-0.0691	
216.00000	-0.0688	
216.20000	-0.0693	
216.40000	-0.0694	
216.60000	-0.0693	
216.80000	-0.0696	
217.00000	-0.0696	
217.20000	-0.0697	
217.40000	-0.0699	
217.60000	-0.0703	
217.80000	-0.0699	
218.00000	-0.0702	
218.20000	-0.0705	
218.40000	-0.0706	
218.60000	-0.0706	
218.80000	-0.0713	
219.00000	-0.0714	
219.20000	-0.0714	
219.40000	-0.0717	
219.60000	-0.0717	
219.80000	-0.0719	
220.00000	-0.0716	
220.20000	-0.0714	
220.40000	-0.0716	
220.60000	-0.0714	
220.80000	-0.0714	
221.00000	-0.0713	
221.20000	-0.0710	
221.40000	-0.0713	
221.60000	-0.0706	
221.80000	-0.0706	
222.00000	-0.0706	
222.20000	-0.0702	
222.40000	-0.0702	
222.60000	-0.0703	
222.80000	-0.0703	
223.00000	-0.0697	
223.20000	-0.0700	
223.40000	-0.0702	
223.60000	-0.0699	
223.80000	-0.0697	
224.00000	-0.0697	
224.20000	-0.0696	
224.40000	-0.0693	
224.60000	-0.0688	
224.80000	-0.0688	
225.00000	-0.0684	
225.20000	-0.0685	
225.40000	-0.0684	
225.60000	-0.0681	
225.80000	-0.0679	
226.00000	-0.0674	
226.20000	-0.0673	
226.40000	-0.0670	
226.60000	-0.0670	
226.80000	-0.0662	
227.00000	-0.0661	
227.20000	-0.0658	
227.40000	-0.0656	
227.60000	-0.0653	
227.80000	-0.0650	
228.00000	-0.0642	
228.20000	-0.0644	
228.40000	-0.0638	
228.60000	-0.0641	
228.80000	-0.0638	
229.00000	-0.0635	
229.20000	-0.0638	
229.40000	-0.0641	
229.60000	-0.0641	
229.80000	-0.0636	
230.00000	-0.0635	
230.20000	-0.0630	
230.40000	-0.0633	
230.60000	-0.0632	
230.80000	-0.0630	
231.00000	-0.0627	
231.20000	-0.0630	
231.40000	-0.0632	
231.60000	-0.0632	
231.80000	-0.0630	
232.00000	-0.0629	
232.20000	-0.0629	
232.40000	-0.0629	
232.60000	-0.0629	
232.80000	-0.0630	
233.00000	-0.0630	
233.20000	-0.0630	
233.40000	-0.0629	
233.60000	-0.0627	
233.80000	-0.0624	
234.00000	-0.0627	
234.20000	-0.0624	
234.40000	-0.0624	
234.60000	-0.0627	
234.80000	-0.0621	
235.00000	-0.0623	
235.20000	-0.0624	
235.40000	-0.0624	
235.60000	-0.0627	
235.80000	-0.0632	
236.00000	-0.0630	
236.20000	-0.0629	
236.40000	-0.0632	
236.60000	-0.0630	
236.80000	-0.0627	
237.00000	-0.0629	
237.20000	-0.0623	
237.40000	-0.0621	
237.60000	-0.0618	
237.80000	-0.0615	
238.00000	-0.0613	
238.20000	-0.0610	
238.40000	-0.0609	
238.60000	-0.0603	
238.80000	-0.0601	
239.00000	-0.0600	
239.20000	-0.0597	
239.40000	-0.0592	
239.60000	-0.0592	
239.80000	-0.0587	
240.00000	-0.0586	
240.20000	-0.0584	
240.40000	-0.0581	
240.60000	-0.0581	
240.80000	-0.0578	
241.00000	-0.0574	
241.20000	-0.0574	
241.40000	-0.0568	
241.60000	-0.0566	
241.80000	-0.0560	
242.00000	-0.0558	
242.20000	-0.0557	
242.40000	-0.0551	
242.60000	-0.0548	
242.80000	-0.0543	
243.00000	-0.0540	
243.20000	-0.0537	
243.40000	-0.0536	
243.60000	-0.0533	
243.80000	-0.0529	
244.00000	-0.0526	
244.20000	-0.0522	
244.40000	-0.0517	
244.60000	-0.0513	
244.80000	-0.0510	
245.00000	-0.0508	
245.20000	-0.0504	
245.40000	-0.0500	
245.60000	-0.0497	
245.80000	-0.0496	
246.00000	-0.0493	
246.20000	-0.0493	
246.40000	-0.0491	
246.60000	-0.0487	
246.80000	-0.0487	
247.00000	-0.0487	
247.20000	-0.0484	
247.40000	-0.0484	
247.60000	-0.0479	
247.80000	-0.0476	
248.00000	-0.0475	
248.20000	-0.0475	
248.40000	-0.0479	
248.60000	-0.0475	
248.80000	-0.0473	
249.00000	-0.0476	
249.20000	-0.0475	
249.40000	-0.0475	
249.60000	-0.0479	
249.80000	-0.0479	
250.00000	-0.0471	
250.20000	-0.0471	
250.40000	-0.0471	
250.60000	-0.0471	
250.80000	-0.0471	
251.00000	-0.0470	
251.20000	-0.0470	
251.40000	-0.0470	
251.60000	-0.0471	
251.80000	-0.0471	
252.00000	-0.0471	
252.20000	-0.0475	
252.40000	-0.0475	
252.60000	-0.0473	
252.80000	-0.0473	
253.00000	-0.0470	
253.20000	-0.0468	
253.40000	-0.0467	
253.60000	-0.0467	
253.80000	-0.0464	
254.00000	-0.0461	
254.20000	-0.0462	
254.40000	-0.0459	
254.60000	-0.0453	
254.80000	-0.0453	
255.00000	-0.0450	
255.20000	-0.0446	
255.40000	-0.0444	
255.60000	-0.0443	
255.80000	-0.0441	
256.00000	-0.0439	
256.20000	-0.0438	
256.40000	-0.0433	
256.60000	-0.0430	
256.80000	-0.0429	
257.00000	-0.0427	
257.20000	-0.0424	
257.40000	-0.0421	
257.60000	-0.0420	
257.80000	-0.0417	
258.00000	-0.0412	
258.20000	-0.0407	
258.40000	-0.0404	
258.60000	-0.0403	
258.80000	-0.0401	
259.00000	-0.0401	
259.20000	-0.0395	
259.40000	-0.0395	
259.60000	-0.0391	
259.80000	-0.0386	
260.00000	-0.0386	
260.20000	-0.0381	
260.40000	-0.0375	
260.60000	-0.0377	
260.80000	-0.0369	
261.00000	-0.0365	
261.20000	-0.0363	
261.40000	-0.0362	
261.60000	-0.0359	
261.80000	-0.0354	
262.00000	-0.0352	
262.20000	-0.0349	
262.40000	-0.0349	
262.60000	-0.0352	
262.80000	-0.0346	
263.00000	-0.0343	
263.20000	-0.0342	
263.40000	-0.0343	
263.60000	-0.0339	
263.80000	-0.0339	
264.00000	-0.0337	
264.20000	-0.0336	
264.40000	-0.0334	
264.60000	-0.0336	
264.80000	-0.0339	
265.00000	-0.0337	
265.20000	-0.0334	
265.40000	-0.0334	
265.60000	-0.0336	
265.80000	-0.0336	
266.00000	-0.0337	
266.20000	-0.0337	
266.40000	-0.0339	
266.60000	-0.0339	
266.80000	-0.0339	
267.00000	-0.0340	
267.20000	-0.0340	
267.40000	-0.0342	
267.60000	-0.0342	
267.80000	-0.0342	
268.00000	-0.0343	
268.20000	-0.0345	
268.40000	-0.0340	
268.60000	-0.0345	
268.80000	-0.0345	
269.00000	-0.0345	
269.20000	-0.0346	
269.40000	-0.0346	
269.60000	-0.0345	
269.80000	-0.0348	
270.00000	-0.0343	
270.20000	-0.0343	
270.40000	-0.0340	
270.60000	-0.0337	
270.80000	-0.0336	
271.00000	-0.0334	
271.20000	-0.0328	
271.40000	-0.0327	
271.60000	-0.0323	
271.80000	-0.0323	
272.00000	-0.0319	
272.20000	-0.0319	
272.40000	-0.0316	
272.60000	-0.0316	
272.80000	-0.0313	
273.00000	-0.0310	
273.20000	-0.0307	
273.40000	-0.0304	
273.60000	-0.0302	
273.80000	-0.0301	
274.00000	-0.0299	
274.20000	-0.0298	
274.40000	-0.0294	
274.60000	-0.0291	
274.80000	-0.0288	
275.00000	-0.0285	
275.20000	-0.0282	
275.40000	-0.0281	
275.60000	-0.0279	
275.80000	-0.0275	
276.00000	-0.0272	
276.20000	-0.0269	
276.40000	-0.0269	
276.60000	-0.0264	
276.80000	-0.0264	
277.00000	-0.0258	
277.20000	-0.0258	
277.40000	-0.0256	
277.60000	-0.0250	
277.80000	-0.0250	
278.00000	-0.0246	
278.20000	-0.0243	
278.40000	-0.0238	
278.60000	-0.0237	
278.80000	-0.0233	
279.00000	-0.0232	
279.20000	-0.0229	
279.40000	-0.0230	
279.60000	-0.0227	
279.80000	-0.0229	
280.00000	-0.0227	
280.20000	-0.0226	
280.40000	-0.0221	
280.60000	-0.0220	
280.80000	-0.0217	
281.00000	-0.0215	
281.20000	-0.0214	
281.40000	-0.0215	
281.60000	-0.0214	
281.80000	-0.0215	
282.00000	-0.0215	
282.20000	-0.0212	
282.40000	-0.0214	
282.60000	-0.0214	
282.80000	-0.0214	
283.00000	-0.0215	
283.20000	-0.0214	
283.40000	-0.0214	
283.60000	-0.0211	
283.80000	-0.0211	
284.00000	-0.0212	
284.20000	-0.0214	
284.40000	-0.0214	
284.60000	-0.0214	
284.80000	-0.0215	
285.00000	-0.0215	
285.20000	-0.0215	
285.40000	-0.0214	
285.60000	-0.0220	
285.80000	-0.0220	
286.00000	-0.0217	
286.20000	-0.0220	
286.40000	-0.0220	
286.60000	-0.0212	
286.80000	-0.0215	
287.00000	-0.0217	
287.20000	-0.0214	
287.40000	-0.0209	
287.60000	-0.0212	
287.80000	-0.0206	
288.00000	-0.0204	
288.20000	-0.0208	
288.40000	-0.0206	
288.60000	-0.0198	
288.80000	-0.0198	
289.00000	-0.0198	
289.20000	-0.0198	
289.40000	-0.0197	
289.60000	-0.0197	
289.80000	-0.0197	
290.00000	-0.0197	
290.20000	-0.0195	
290.40000	-0.0191	
290.60000	-0.0189	
290.80000	-0.0186	
291.00000	-0.0186	
291.20000	-0.0183	
291.40000	-0.0182	
291.60000	-0.0179	
291.80000	-0.0179	
292.00000	-0.0175	
292.20000	-0.0175	
292.40000	-0.0172	
292.60000	-0.0171	
292.80000	-0.0171	
293.00000	-0.0171	
293.20000	-0.0171	
293.40000	-0.0169	
293.60000	-0.0168	
293.80000	-0.0166	
294.00000	-0.0165	
294.20000	-0.0165	
294.40000	-0.0162	
294.60000	-0.0162	
294.80000	-0.0162	
295.00000	-0.0157	
295.20000	-0.0154	
295.40000	-0.0156	
295.60000	-0.0160	
295.80000	-0.0157	
296.00000	-0.0162	
296.20000	-0.0165	
296.40000	-0.0162	
296.60000	-0.0160	
296.80000	-0.0163	
297.00000	-0.0165	
297.20000	-0.0165	
297.40000	-0.0165	
297.60000	-0.0166	
297.80000	-0.0166	
298.00000	-0.0171	
298.20000	-0.0171	
298.40000	-0.0174	
298.60000	-0.0177	
298.80000	-0.0182	
299.00000	-0.0183	
299.20000	-0.0182	
299.40000	-0.0188	
299.60000	-0.0194	
299.80000	-0.0195	
300.00000	-0.0200	
300.20000	-0.0204	
300.40000	-0.0200	
300.60000	-0.0209	
300.80000	-0.0214	
301.00000	-0.0215	
301.20000	-0.0220	
301.40000	-0.0226	
301.60000	-0.0229	
301.80000	-0.0232	
302.00000	-0.0240	
302.20000	-0.0243	
302.40000	-0.0250	
302.60000	-0.0255	
302.80000	-0.0259	
303.00000	-0.0264	
303.20000	-0.0264	
303.40000	-0.0270	
303.60000	-0.0272	
303.80000	-0.0273	
304.00000	-0.0276	
304.20000	-0.0279	
304.40000	-0.0281	
304.60000	-0.0285	
304.80000	-0.0293	
305.00000	-0.0291	
305.20000	-0.0296	
305.40000	-0.0301	
305.60000	-0.0302	
305.80000	-0.0304	
306.00000	-0.0311	
306.20000	-0.0313	
306.40000	-0.0314	
306.60000	-0.0317	
306.80000	-0.0322	
307.00000	-0.0325	
307.20000	-0.0327	
307.40000	-0.0331	
307.60000	-0.0334	
307.80000	-0.0336	
308.00000	-0.0339	
308.20000	-0.0342	
308.40000	-0.0343	
308.60000	-0.0348	
308.80000	-0.0349	
309.00000	-0.0354	
309.20000	-0.0357	
309.40000	-0.0357	
309.60000	-0.0360	
309.80000	-0.0365	
310.00000	-0.0372	
310.20000	-0.0372	
310.40000	-0.0377	
310.60000	-0.0378	
310.80000	-0.0383	
311.00000	-0.0381	
311.20000	-0.0388	
311.40000	-0.0389	
311.60000	-0.0394	
311.80000	-0.0397	
312.00000	-0.0400	
312.20000	-0.0403	
312.40000	-0.0407	
312.60000	-0.0412	
312.80000	-0.0420	
313.00000	-0.0421	
313.20000	-0.0426	
313.40000	-0.0429	
313.60000	-0.0433	
313.80000	-0.0439	
314.00000	-0.0443	
314.20000	-0.0444	
314.40000	-0.0452	
314.60000	-0.0453	
314.80000	-0.0461	
315.00000	-0.0468	
315.20000	-0.0471	
315.40000	-0.0476	
315.60000	-0.0484	
315.80000	-0.0488	
316.00000	-0.0493	
316.20000	-0.0502	
316.40000	-0.0505	
316.60000	-0.0508	
316.80000	-0.0513	
317.00000	-0.0517	
317.20000	-0.0526	
317.40000	-0.0531	
317.60000	-0.0540	
317.80000	-0.0540	
318.00000	-0.0548	
318.20000	-0.0554	
318.40000	-0.0557	
318.60000	-0.0566	
318.80000	-0.0571	
319.00000	-0.0578	
319.20000	-0.0581	
319.40000	-0.0586	
319.60000	-0.0592	
319.80000	-0.0598	
320.00000	-0.0600	
320.20000	-0.0601	
320.40000	-0.0606	
320.60000	-0.0607	
320.80000	-0.0610	
321.00000	-0.0610	
321.20000	-0.0615	
321.40000	-0.0616	
321.60000	-0.0616	
321.80000	-0.0618	
322.00000	-0.0621	
322.20000	-0.0624	
322.40000	-0.0627	
322.60000	-0.0629	
322.80000	-0.0633	
323.00000	-0.0636	
323.20000	-0.0639	
323.40000	-0.0641	
323.60000	-0.0642	
323.80000	-0.0644	
324.00000	-0.0645	
324.20000	-0.0644	
324.40000	-0.0645	
324.60000	-0.0650	
324.80000	-0.0645	
325.00000	-0.0648	
325.20000	-0.0652	
325.40000	-0.0652	
325.60000	-0.0653	
325.80000	-0.0655	
326.00000	-0.0655	
326.20000	-0.0658	
326.40000	-0.0658	
326.60000	-0.0659	
326.80000	-0.0658	
327.00000	-0.0661	
327.20000	-0.0662	
327.40000	-0.0658	
327.60000	-0.0659	
327.80000	-0.0658	
328.00000	-0.0659	
328.20000	-0.0661	
328.40000	-0.0658	
328.60000	-0.0658	
328.80000	-0.0662	
329.00000	-0.0661	
329.20000	-0.0662	
329.40000	-0.0665	
329.60000	-0.0665	
329.80000	-0.0662	
330.00000	-0.0667	
330.20000	-0.0667	
330.40000	-0.0667	
330.60000	-0.0667	
330.80000	-0.0671	
331.00000	-0.0670	
331.20000	-0.0676	
331.40000	-0.0676	
331.60000	-0.0681	
331.80000	-0.0682	
332.00000	-0.0684	
332.20000	-0.0688	
332.40000	-0.0691	
332.60000	-0.0691	
332.80000	-0.0699	
333.00000	-0.0700	
333.20000	-0.0702	
333.40000	-0.0703	
333.60000	-0.0710	
333.80000	-0.0710	
334.00000	-0.0710	
334.20000	-0.0716	
334.40000	-0.0719	
334.60000	-0.0719	
334.80000	-0.0723	
335.00000	-0.0723	
335.20000	-0.0725	
335.40000	-0.0726	
335.60000	-0.0729	
335.80000	-0.0731	
336.00000	-0.0739	
336.20000	-0.0737	
336.40000	-0.0739	
336.60000	-0.0740	
336.80000	-0.0742	
337.00000	-0.0739	
337.20000	-0.0739	
337.40000	-0.0742	
337.60000	-0.0742	
337.80000	-0.0735	
338.00000	-0.0740	
338.20000	-0.0742	
338.40000	-0.0740	
338.60000	-0.0737	
338.80000	-0.0739	
339.00000	-0.0739	
339.20000	-0.0742	
339.40000	-0.0743	
339.60000	-0.0742	
339.80000	-0.0742	
340.00000	-0.0742	
340.20000	-0.0739	
340.40000	-0.0740	
340.60000	-0.0740	
340.80000	-0.0740	
341.00000	-0.0739	
341.20000	-0.0739	
341.40000	-0.0739	
341.60000	-0.0734	
341.80000	-0.0731	
342.00000	-0.0731	
342.20000	-0.0735	
342.40000	-0.0734	
342.60000	-0.0729	
342.80000	-0.0729	
343.00000	-0.0725	
343.20000	-0.0725	
343.40000	-0.0729	
343.60000	-0.0723	
343.80000	-0.0725	
344.00000	-0.0723	
344.20000	-0.0723	
344.40000	-0.0722	
344.60000	-0.0720	
344.80000	-0.0716	
345.00000	-0.0717	
345.20000	-0.0713	
345.40000	-0.0713	
345.60000	-0.0710	
345.80000	-0.0710	
346.00000	-0.0716	
346.20000	-0.0714	
346.40000	-0.0713	
346.60000	-0.0714	
346.80000	-0.0710	
347.00000	-0.0713	
347.20000	-0.0710	
347.40000	-0.0710	
347.60000	-0.0710	
347.80000	-0.0706	
348.00000	-0.0706	
348.20000	-0.0706	
348.40000	-0.0710	
348.60000	-0.0710	
348.80000	-0.0713	
349.00000	-0.0710	
349.20000	-0.0714	
349.40000	-0.0716	
349.60000	-0.0719	
349.80000	-0.0719	
350.00000	-0.0719	
350.20000	-0.0720	
350.40000	-0.0719	
350.60000	-0.0719	
350.80000	-0.0723	
351.00000	-0.0722	
351.20000	-0.0723	
351.40000	-0.0725	
351.60000	-0.0728	
351.80000	-0.0728	
352.00000	-0.0729	
352.20000	-0.0729	
352.40000	-0.0734	
352.60000	-0.0734	
352.80000	-0.0737	
353.00000	-0.0735	
353.20000	-0.0734	
353.40000	-0.0731	
353.60000	-0.0731	
353.80000	-0.0729	
354.00000	-0.0728	
354.20000	-0.0728	
354.40000	-0.0725	
354.60000	-0.0722	
354.80000	-0.0722	
355.00000	-0.0722	
355.20000	-0.0719	
355.40000	-0.0713	
355.60000	-0.0716	
355.80000	-0.0710	
356.00000	-0.0708	
356.20000	-0.0706	
356.40000	-0.0708	
356.60000	-0.0705	
356.80000	-0.0703	
357.00000	-0.0700	
357.20000	-0.0699	
357.40000	-0.0697	
357.60000	-0.0694	
357.80000	-0.0691	
358.00000	-0.0687	
358.20000	-0.0684	
358.40000	-0.0682	
358.60000	-0.0679	
358.80000	-0.0679	
359.00000	-0.0676	
359.20000	-0.0674	
359.40000	-0.0671	
359.60000	-0.0667	
359.80000	-0.0667	
360.00000	-0.0661	
360.20000	-0.0659	
360.40000	-0.0661	
360.60000	-0.0655	
360.80000	-0.0648	
361.00000	-0.0644	
361.20000	-0.0642	
361.40000	-0.0641	
361.60000	-0.0638	
361.80000	-0.0633	
362.00000	-0.0632	
362.20000	-0.0632	
362.40000	-0.0627	
362.60000	-0.0624	
362.80000	-0.0630	
363.00000	-0.0623	
363.20000	-0.0621	
363.40000	-0.0618	
363.60000	-0.0618	
363.80000	-0.0615	
364.00000	-0.0613	
364.20000	-0.0613	
364.40000	-0.0612	
364.60000	-0.0610	
364.80000	-0.0609	
365.00000	-0.0610	
365.20000	-0.0609	
365.40000	-0.0609	
365.60000	-0.0607	
365.80000	-0.0606	
366.00000	-0.0606	
366.20000	-0.0610	
366.40000	-0.0612	
366.60000	-0.0609	
366.80000	-0.0609	
367.00000	-0.0607	
367.20000	-0.0607	
367.40000	-0.0606	
367.60000	-0.0609	
367.80000	-0.0606	
368.00000	-0.0603	
368.20000	-0.0606	
368.40000	-0.0603	
368.60000	-0.0603	
368.80000	-0.0603	
369.00000	-0.0607	
369.20000	-0.0606	
369.40000	-0.0607	
369.60000	-0.0607	
369.80000	-0.0606	
370.00000	-0.0600	
370.20000	-0.0600	
370.40000	-0.0598	
370.60000	-0.0592	
370.80000	-0.0589	
371.00000	-0.0589	
371.20000	-0.0584	
371.40000	-0.0581	
371.60000	-0.0578	
371.80000	-0.0578	
372.00000	-0.0575	
372.20000	-0.0572	
372.40000	-0.0571	
372.60000	-0.0569	
372.80000	-0.0569	
373.00000	-0.0562	
373.20000	-0.0562	
373.40000	-0.0560	
373.60000	-0.0557	
373.80000	-0.0552	
374.00000	-0.0552	
374.20000	-0.0551	
374.40000	-0.0545	
374.60000	-0.0540	
374.80000	-0.0537	
375.00000	-0.0534	
375.20000	-0.0533	
375.40000	-0.0528	
375.60000	-0.0525	
375.80000	-0.0519	
376.00000	-0.0514	
376.20000	-0.0513	
376.40000	-0.0510	
376.60000	-0.0508	
376.80000	-0.0507	
377.00000	-0.0504	
377.20000	-0.0500	
377.40000	-0.0496	
377.60000	-0.0491	
377.80000	-0.0490	
378.00000	-0.0487	
378.20000	-0.0487	
378.40000	-0.0481	
378.60000	-0.0479	
378.80000	-0.0476	
379.00000	-0.0470	
379.20000	-0.0473	
379.40000	-0.0471	
379.60000	-0.0473	
379.80000	-0.0470	
380.00000	-0.0470	
380.20000	-0.0464	
380.40000	-0.0462	
380.60000	-0.0461	
380.80000	-0.0461	
381.00000	-0.0461	
381.20000	-0.0455	
381.40000	-0.0453	
381.60000	-0.0453	
381.80000	-0.0459	
382.00000	-0.0455	
382.20000	-0.0455	
382.40000	-0.0458	
382.60000	-0.0458	
382.80000	-0.0458	
383.00000	-0.0459	
383.20000	-0.0461	
383.40000	-0.0459	
383.60000	-0.0455	
383.80000	-0.0459	
384.00000	-0.0459	
384.20000	-0.0461	
384.40000	-0.0459	
384.60000	-0.0461	
384.80000	-0.0462	
385.00000	-0.0464	
385.20000	-0.0461	
385.40000	-0.0461	
385.60000	-0.0465	
385.80000	-0.0464	
386.00000	-0.0465	
386.20000	-0.0464	
386.40000	-0.0461	
386.60000	-0.0461	
386.80000	-0.0459	
387.00000	-0.0461	
387.20000	-0.0458	
387.40000	-0.0455	
387.60000	-0.0452	
387.80000	-0.0447	
388.00000	-0.0449	
388.20000	-0.0446	
388.40000	-0.0443	
388.60000	-0.0444	
388.80000	-0.0439	
389.00000	-0.0438	
389.20000	-0.0438	
389.40000	-0.0438	
389.60000	-0.0433	
389.80000	-0.0430	
390.00000	-0.0432	
390.20000	-0.0430	
390.40000	-0.0426	
390.60000	-0.0423	
390.80000	-0.0423	
391.00000	-0.0420	
391.20000	-0.0415	
391.40000	-0.0410	
391.60000	-0.0409	
391.80000	-0.0407	
392.00000	-0.0403	
392.20000	-0.0403	
392.40000	-0.0403	
392.60000	-0.0400	
392.80000	-0.0398	
393.00000	-0.0394	
393.20000	-0.0394	
393.40000	-0.0391	
393.60000	-0.0389	
393.80000	-0.0385	
394.00000	-0.0383	
394.20000	-0.0381	
394.40000	-0.0378	
394.60000	-0.0378	
394.80000	-0.0375	
395.00000	-0.0375	
395.20000	-0.0372	
395.40000	-0.0372	
395.60000	-0.0375	
395.80000	-0.0372	
396.00000	-0.0372	
396.20000	-0.0374	
396.40000	-0.0369	
396.60000	-0.0368	
396.80000	-0.0365	
397.00000	-0.0366	
397.20000	-0.0365	
397.40000	-0.0365	
397.60000	-0.0365	
397.80000	-0.0366	
398.00000	-0.0365	
398.20000	-0.0366	
398.40000	-0.0368	
398.60000	-0.0368	
398.80000	-0.0372	
399.00000	-0.0372	
399.20000	-0.0374	
399.40000	-0.0377	
399.60000	-0.0377	
399.80000	-0.0381	
400.00000	-0.0378	
400.20000	-0.0381	
400.40000	-0.0383	
400.60000	-0.0381	
400.80000	-0.0386	
401.00000	-0.0383	
401.20000	-0.0383	
401.40000	-0.0386	
401.60000	-0.0388	
401.80000	-0.0389	
402.00000	-0.0389	
402.20000	-0.0391	
402.40000	-0.0395	
402.60000	-0.0395	
402.80000	-0.0395	
403.00000	-0.0398	
403.20000	-0.0397	
403.40000	-0.0398	
403.60000	-0.0397	
403.80000	-0.0395	
404.00000	-0.0394	
404.20000	-0.0391	
404.40000	-0.0391	
404.60000	-0.0388	
404.80000	-0.0389	
405.00000	-0.0389	
405.20000	-0.0385	
405.40000	-0.0386	
405.60000	-0.0385	
405.80000	-0.0381	
406.00000	-0.0385	
406.20000	-0.0381	
406.40000	-0.0378	
406.60000	-0.0380	
406.80000	-0.0380	
407.00000	-0.0375	
407.20000	-0.0374	
407.40000	-0.0374	
407.60000	-0.0369	
407.80000	-0.0372	
408.00000	-0.0368	
408.20000	-0.0366	
408.40000	-0.0365	
408.60000	-0.0363	
408.80000	-0.0362	
409.00000	-0.0362	
409.20000	-0.0359	
409.40000	-0.0357	
409.60000	-0.0356	
409.80000	-0.0356	
410.00000	-0.0354	
410.20000	-0.0356	
410.40000	-0.0354	
410.60000	-0.0352	
410.80000	-0.0354	
411.00000	-0.0352	
411.20000	-0.0349	
411.40000	-0.0352	
411.60000	-0.0348	
411.80000	-0.0346	
412.00000	-0.0346	
412.20000	-0.0346	
412.40000	-0.0346	
412.60000	-0.0346	
412.80000	-0.0349	
413.00000	-0.0349	
413.20000	-0.0348	
413.40000	-0.0346	
413.60000	-0.0346	
413.80000	-0.0346	
414.00000	-0.0348	
414.20000	-0.0349	
414.40000	-0.0348	
414.60000	-0.0348	
414.80000	-0.0348	
415.00000	-0.0354	
415.20000	-0.0356	
415.40000	-0.0360	
415.60000	-0.0357	
415.80000	-0.0360	
416.00000	-0.0360	
416.20000	-0.0365	
416.40000	-0.0366	
416.60000	-0.0365	
416.80000	-0.0369	
417.00000	-0.0368	
417.20000	-0.0369	
417.40000	-0.0375	
417.60000	-0.0377	
417.80000	-0.0374	
418.00000	-0.0377	
418.20000	-0.0378	
418.40000	-0.0380	
418.60000	-0.0381	
418.80000	-0.0385	
419.00000	-0.0386	
419.20000	-0.0389	
419.40000	-0.0388	
419.60000	-0.0388	
419.80000	-0.0391	
420.00000	-0.0388	
420.20000	-0.0388	
420.40000	-0.0391	
420.60000	-0.0391	
420.80000	-0.0389	
421.00000	-0.0391	
421.20000	-0.0389	
421.40000	-0.0386	
421.60000	-0.0388	
421.80000	-0.0388	
422.00000	-0.0383	
422.20000	-0.0385	
422.40000	-0.0383	
422.60000	-0.0386	
422.80000	-0.0385	
423.00000	-0.0385	
423.20000	-0.0386	
423.40000	-0.0385	
423.60000	-0.0385	
423.80000	-0.0383	
424.00000	-0.0381	
424.20000	-0.0380	
424.40000	-0.0381	
424.60000	-0.0378	
424.80000	-0.0375	
425.00000	-0.0375	
425.20000	-0.0372	
425.40000	-0.0374	
425.60000	-0.0375	
425.80000	-0.0369	
426.00000	-0.0369	
426.20000	-0.0368	
426.40000	-0.0369	
426.60000	-0.0368	
426.80000	-0.0363	
427.00000	-0.0365	
427.20000	-0.0365	
427.40000	-0.0362	
427.60000	-0.0362	
427.80000	-0.0362	
428.00000	-0.0362	
428.20000	-0.0360	
428.40000	-0.0360	
428.60000	-0.0362	
428.80000	-0.0360	
429.00000	-0.0362	
429.20000	-0.0360	
429.40000	-0.0363	
429.60000	-0.0363	
429.80000	-0.0363	
430.00000	-0.0360	
430.20000	-0.0362	
430.40000	-0.0365	
430.60000	-0.0365	
430.80000	-0.0362	
431.00000	-0.0365	
431.20000	-0.0368	
431.40000	-0.0368	
431.60000	-0.0368	
431.80000	-0.0369	
432.00000	-0.0369	
432.20000	-0.0377	
432.40000	-0.0378	
432.60000	-0.0380	
432.80000	-0.0383	
433.00000	-0.0388	
433.20000	-0.0385	
433.40000	-0.0388	
433.60000	-0.0395	
433.80000	-0.0389	
434.00000	-0.0391	
434.20000	-0.0398	
434.40000	-0.0397	
434.60000	-0.0397	
434.80000	-0.0398	
435.00000	-0.0400	
435.20000	-0.0401	
435.40000	-0.0404	
435.60000	-0.0406	
435.80000	-0.0410	
436.00000	-0.0412	
436.20000	-0.0415	
436.40000	-0.0415	
436.60000	-0.0415	
436.80000	-0.0417	
437.00000	-0.0417	
437.20000	-0.0415	
437.40000	-0.0417	
437.60000	-0.0415	
437.80000	-0.0409	
438.00000	-0.0410	
438.20000	-0.0412	
438.40000	-0.0410	
438.60000	-0.0409	
438.80000	-0.0409	
439.00000	-0.0410	
439.20000	-0.0410	
439.40000	-0.0407	
439.60000	-0.0407	
439.80000	-0.0409	
440.00000	-0.0409	
440.20000	-0.0409	
440.40000	-0.0407	
440.60000	-0.0404	
440.80000	-0.0404	
441.00000	-0.0404	
441.20000	-0.0401	
441.40000	-0.0400	
441.60000	-0.0400	
441.80000	-0.0395	
442.00000	-0.0394	
442.20000	-0.0395	
442.40000	-0.0391	
442.60000	-0.0391	
442.80000	-0.0388	
443.00000	-0.0386	
443.20000	-0.0389	
443.40000	-0.0389	
443.60000	-0.0388	
443.80000	-0.0386	
444.00000	-0.0385	
444.20000	-0.0383	
444.40000	-0.0383	
444.60000	-0.0383	
444.80000	-0.0381	
445.00000	-0.0380	
445.20000	-0.0378	
445.40000	-0.0377	
445.60000	-0.0377	
445.80000	-0.0378	
446.00000	-0.0381	
446.20000	-0.0383	
446.40000	-0.0381	
446.60000	-0.0383	
446.80000	-0.0383	
447.00000	-0.0381	
447.20000	-0.0381	
447.40000	-0.0385	
447.60000	-0.0381	
447.80000	-0.0381	
448.00000	-0.0385	
448.20000	-0.0385	
448.40000	-0.0383	
448.60000	-0.0386	
448.80000	-0.0391	
449.00000	-0.0391	
449.20000	-0.0397	
449.40000	-0.0397	
449.60000	-0.0398	
449.80000	-0.0400	
450.00000	-0.0400	
450.20000	-0.0401	
450.40000	-0.0404	
450.60000	-0.0406	
450.80000	-0.0407	
451.00000	-0.0407	
451.20000	-0.0410	
451.40000	-0.0412	
451.60000	-0.0412	
451.80000	-0.0418	
452.00000	-0.0420	
452.20000	-0.0420	
452.40000	-0.0421	
452.60000	-0.0421	
452.80000	-0.0424	
453.00000	-0.0424	
453.20000	-0.0423	
453.40000	-0.0423	
453.60000	-0.0426	
453.80000	-0.0423	
454.00000	-0.0424	
454.20000	-0.0424	
454.40000	-0.0423	
454.60000	-0.0421	
454.80000	-0.0423	
455.00000	-0.0420	
455.20000	-0.0420	
455.40000	-0.0418	
455.60000	-0.0417	
455.80000	-0.0418	
456.00000	-0.0417	
456.20000	-0.0417	
456.40000	-0.0415	
456.60000	-0.0418	
456.80000	-0.0418	
457.00000	-0.0412	
457.20000	-0.0409	
457.40000	-0.0407	
457.60000	-0.0407	
457.80000	-0.0407	
458.00000	-0.0406	
458.20000	-0.0403	
458.40000	-0.0403	
458.60000	-0.0401	
458.80000	-0.0401	
459.00000	-0.0401	
459.20000	-0.0398	
459.40000	-0.0397	
459.60000	-0.0394	
459.80000	-0.0397	
460.00000	-0.0395	
460.20000	-0.0395	
460.40000	-0.0394	
460.60000	-0.0391	
460.80000	-0.0391	
461.00000	-0.0388	
461.20000	-0.0386	
461.40000	-0.0383	
461.60000	-0.0388	
461.80000	-0.0385	
462.00000	-0.0385	
462.20000	-0.0383	
462.40000	-0.0386	
462.60000	-0.0381	
462.80000	-0.0389	
463.00000	-0.0394	
463.20000	-0.0391	
463.40000	-0.0386	
463.60000	-0.0386	
463.80000	-0.0386	
464.00000	-0.0386	
464.20000	-0.0388	
464.40000	-0.0388	
464.60000	-0.0388	
464.80000	-0.0391	
465.00000	-0.0391	
465.20000	-0.0394	
465.40000	-0.0391	
465.60000	-0.0397	
465.80000	-0.0400	
466.00000	-0.0400	
466.20000	-0.0401	
466.40000	-0.0406	
466.60000	-0.0407	
466.80000	-0.0407	
467.00000	-0.0409	
467.20000	-0.0410	
467.40000	-0.0409	
467.60000	-0.0409	
467.80000	-0.0412	
468.00000	-0.0415	
468.20000	-0.0417	
468.40000	-0.0415	
468.60000	-0.0420	
468.80000	-0.0421	
469.00000	-0.0427	
469.20000	-0.0426	
469.40000	-0.0427	
469.60000	-0.0429	
469.80000	-0.0429	
470.00000	-0.0429	
470.20000	-0.0429	
470.40000	-0.0430	
470.60000	-0.0429	
470.80000	-0.0426	
471.00000	-0.0427	
471.20000	-0.0426	
471.40000	-0.0424	
471.60000	-0.0426	
471.80000	-0.0427	
472.00000	-0.0424	
472.20000	-0.0426	
472.40000	-0.0424	
472.60000	-0.0423	
472.80000	-0.0423	
473.00000	-0.0420	
473.20000	-0.0420	
473.40000	-0.0421	
473.60000	-0.0420	
473.80000	-0.0418	
474.00000	-0.0418	
474.20000	-0.0417	
474.40000	-0.0410	
474.60000	-0.0409	
474.80000	-0.0409	
475.00000	-0.0407	
475.20000	-0.0407	
475.40000	-0.0407	
475.60000	-0.0403	
475.80000	-0.0401	
476.00000	-0.0403	
476.20000	-0.0403	
476.40000	-0.0400	
476.60000	-0.0400	
476.80000	-0.0401	
477.00000	-0.0400	
477.20000	-0.0398	
477.40000	-0.0398	
477.60000	-0.0398	
477.80000	-0.0397	
478.00000	-0.0394	
478.20000	-0.0394	
478.40000	-0.0391	
478.60000	-0.0388	
478.80000	-0.0388	
479.00000	-0.0389	
479.20000	-0.0391	
479.40000	-0.0391	
479.60000	-0.0394	
479.80000	-0.0391	
480.00000	-0.0391	
480.20000	-0.0395	
480.40000	-0.0389	
480.60000	-0.0391	
480.80000	-0.0394	
481.00000	-0.0394	
481.20000	-0.0391	
481.40000	-0.0394	
481.60000	-0.0397	
481.80000	-0.0398	
482.00000	-0.0400	
482.20000	-0.0401	
482.40000	-0.0403	
482.60000	-0.0400	
482.80000	-0.0406	
483.00000	-0.0406	
483.20000	-0.0407	
483.40000	-0.0409	
483.60000	-0.0409	
483.80000	-0.0410	
484.00000	-0.0415	
484.20000	-0.0417	
484.40000	-0.0412	
484.60000	-0.0417	
484.80000	-0.0420	
485.00000	-0.0418	
485.20000	-0.0421	
485.40000	-0.0424	
485.60000	-0.0424	
485.80000	-0.0427	
486.00000	-0.0427	
486.20000	-0.0429	
486.40000	-0.0429	
486.60000	-0.0427	
486.80000	-0.0427	
487.00000	-0.0429	
487.20000	-0.0427	
487.40000	-0.0427	
487.60000	-0.0423	
487.80000	-0.0424	
488.00000	-0.0424	
488.20000	-0.0418	
488.40000	-0.0420	
488.60000	-0.0423	
488.80000	-0.0418	
489.00000	-0.0420	
489.20000	-0.0420	
489.40000	-0.0417	
489.60000	-0.0412	
489.80000	-0.0417	
490.00000	-0.0418	
490.20000	-0.0415	
490.40000	-0.0412	
490.60000	-0.0412	
490.80000	-0.0412	
491.00000	-0.0410	
491.20000	-0.0407	
491.40000	-0.0407	
491.60000	-0.0406	
491.80000	-0.0404	
492.00000	-0.0401	
492.20000	-0.0401	
492.40000	-0.0401	
492.60000	-0.0400	
492.80000	-0.0395	
493.00000	-0.0398	
493.20000	-0.0397	
493.40000	-0.0400	
493.60000	-0.0394	
493.80000	-0.0391	
494.00000	-0.0389	
494.20000	-0.0388	
494.40000	-0.0388	
494.60000	-0.0386	
494.80000	-0.0386	
495.00000	-0.0388	
495.20000	-0.0388	
495.40000	-0.0386	
495.60000	-0.0385	
495.80000	-0.0385	
496.00000	-0.0388	
496.20000	-0.0388	
496.40000	-0.0385	
496.60000	-0.0385	
496.80000	-0.0385	
497.00000	-0.0386	
497.20000	-0.0386	
497.40000	-0.0388	
497.60000	-0.0388	
497.80000	-0.0389	
498.00000	-0.0391	
498.20000	-0.0389	
498.40000	-0.0395	
498.60000	-0.0391	
498.80000	-0.0391	
499.00000	-0.0397	
499.20000	-0.0394	
499.40000	-0.0400	
499.60000	-0.0404	
499.80000	-0.0404	
500.00000	-0.0404	
500.20000	-0.0404	
500.40000	-0.0407	
500.60000	-0.0406	
500.80000	-0.0406	
501.00000	-0.0410	
501.20000	-0.0409	
501.40000	-0.0415	
501.60000	-0.0412	
501.80000	-0.0417	
502.00000	-0.0417	
502.20000	-0.0420	
502.40000	-0.0421	
502.60000	-0.0424	
502.80000	-0.0424	
503.00000	-0.0426	
503.20000	-0.0426	
503.40000	-0.0423	
503.60000	-0.0423	
503.80000	-0.0421	
504.00000	-0.0421	
504.20000	-0.0424	
504.40000	-0.0421	
504.60000	-0.0421	
504.80000	-0.0421	
505.00000	-0.0420	
505.20000	-0.0421	
505.40000	-0.0420	
505.60000	-0.0418	
505.80000	-0.0421	
506.00000	-0.0417	
506.20000	-0.0418	
506.40000	-0.0412	
506.60000	-0.0415	
506.80000	-0.0412	
507.00000	-0.0415	
507.20000	-0.0412	
507.40000	-0.0409	
507.60000	-0.0409	
507.80000	-0.0407	
508.00000	-0.0406	
508.20000	-0.0406	
508.40000	-0.0403	
508.60000	-0.0400	
508.80000	-0.0398	
509.00000	-0.0400	
509.20000	-0.0397	
509.40000	-0.0394	
509.60000	-0.0394	
509.80000	-0.0397	
510.00000	-0.0395	
510.20000	-0.0394	
510.40000	-0.0391	
510.60000	-0.0391	
510.80000	-0.0388	
511.00000	-0.0388	
511.20000	-0.0388	
511.40000	-0.0388	
511.60000	-0.0386	
511.80000	-0.0381	
512.00000	-0.0381	
512.20000	-0.0385	
512.40000	-0.0381	
512.60000	-0.0381	
512.80000	-0.0388	
513.00000	-0.0386	
513.20000	-0.0385	
513.40000	-0.0386	
513.60000	-0.0385	
513.80000	-0.0385	
514.00000	-0.0388	
514.20000	-0.0385	
514.40000	-0.0385	
514.60000	-0.0386	
514.80000	-0.0388	
515.00000	-0.0391	
515.20000	-0.0389	
515.40000	-0.0394	
515.60000	-0.0394	
515.80000	-0.0394	
516.00000	-0.0397	
516.20000	-0.0400	
516.40000	-0.0401	
516.60000	-0.0401	
516.80000	-0.0406	
517.00000	-0.0401	
517.20000	-0.0404	
517.40000	-0.0409	
517.60000	-0.0407	
517.80000	-0.0412	
518.00000	-0.0410	
518.20000	-0.0415	
518.40000	-0.0415	
518.60000	-0.0415	
518.80000	-0.0418	
519.00000	-0.0421	
519.20000	-0.0420	
519.40000	-0.0421	
519.60000	-0.0423	
519.80000	-0.0424	
520.00000	-0.0423	
520.20000	-0.0424	
520.40000	-0.0426	
520.60000	-0.0424	
520.80000	-0.0424	
521.00000	-0.0426	
521.20000	-0.0423	
521.40000	-0.0424	
521.60000	-0.0423	
521.80000	-0.0421	
522.00000	-0.0421	
522.20000	-0.0423	
522.40000	-0.0420	
522.60000	-0.0420	
522.80000	-0.0421	
523.00000	-0.0418	
523.20000	-0.0415	
523.40000	-0.0420	
523.60000	-0.0415	
523.80000	-0.0412	
524.00000	-0.0410	
524.20000	-0.0412	
524.40000	-0.0407	
524.60000	-0.0407	
524.80000	-0.0406	
525.00000	-0.0404	
525.20000	-0.0404	
525.40000	-0.0404	
525.60000	-0.0403	
525.80000	-0.0401	
526.00000	-0.0401	
526.20000	-0.0397	
526.40000	-0.0397	
526.60000	-0.0397	
526.80000	-0.0395	
527.00000	-0.0395	
527.20000	-0.0395	
527.40000	-0.0389	
527.60000	-0.0386	
527.80000	-0.0389	
528.00000	-0.0388	
528.20000	-0.0385	
528.40000	-0.0385	
528.60000	-0.0386	
528.80000	-0.0388	
529.00000	-0.0385	
529.20000	-0.0383	
529.40000	-0.0386	
529.60000	-0.0386	
529.80000	-0.0386	
530.00000	-0.0385	
530.20000	-0.0388	
530.40000	-0.0389	
530.60000	-0.0386	
530.80000	-0.0388	
531.00000	-0.0386	
531.20000	-0.0391	
531.40000	-0.0391	
531.60000	-0.0389	
531.80000	-0.0394	
532.00000	-0.0394	
532.20000	-0.0394	
532.40000	-0.0397	
532.60000	-0.0398	
532.80000	-0.0404	
533.00000	-0.0406	
533.20000	-0.0406	
533.40000	-0.0407	
533.60000	-0.0406	
533.80000	-0.0407	
534.00000	-0.0410	
534.20000	-0.0415	
534.40000	-0.0415	
534.60000	-0.0415	
534.80000	-0.0412	
535.00000	-0.0418	
535.20000	-0.0420	
535.40000	-0.0421	
535.60000	-0.0424	
535.80000	-0.0426	
536.00000	-0.0424	
536.20000	-0.0426	
536.40000	-0.0427	
536.60000	-0.0427	
536.80000	-0.0426	
537.00000	-0.0426	
537.20000	-0.0424	
537.40000	-0.0423	
537.60000	-0.0426	
537.80000	-0.0426	
538.00000	-0.0423	
538.20000	-0.0424	
538.40000	-0.0424	
538.60000	-0.0423	
538.80000	-0.0424	
539.00000	-0.0423	
539.20000	-0.0420	
539.40000	-0.0420	
539.60000	-0.0420	
539.80000	-0.0415	
540.00000	-0.0415	
540.20000	-0.0415	
540.40000	-0.0415	
540.60000	-0.0410	
540.80000	-0.0412	
541.00000	-0.0409	
541.20000	-0.0406	
541.40000	-0.0406	
541.60000	-0.0404	
541.80000	-0.0401	
542.00000	-0.0400	
542.20000	-0.0398	
542.40000	-0.0398	
542.60000	-0.0397	
542.80000	-0.0395	
543.00000	-0.0395	
543.20000	-0.0395	
543.40000	-0.0394	
543.60000	-0.0391	
543.80000	-0.0389	
544.00000	-0.0389	
544.20000	-0.0391	
544.40000	-0.0389	
544.60000	-0.0389	
544.80000	-0.0391	
545.00000	-0.0386	
545.20000	-0.0386	
545.40000	-0.0383	
545.60000	-0.0385	
545.80000	-0.0383	
546.00000	-0.0386	
546.20000	-0.0388	
546.40000	-0.0389	
546.60000	-0.0388	
546.80000	-0.0386	
547.00000	-0.0386	
547.20000	-0.0388	
547.40000	-0.0386	
547.60000	-0.0385	
547.80000	-0.0388	
548.00000	-0.0388	
548.20000	-0.0389	
548.40000	-0.0391	
548.60000	-0.0395	
548.80000	-0.0395	
549.00000	-0.0398	
549.20000	-0.0395	
549.40000	-0.0400	
549.60000	-0.0404	
549.80000	-0.0406	
550.00000	-0.0407	
550.20000	-0.0407	
550.40000	-0.0412	
550.60000	-0.0415	
550.80000	-0.0420	
551.00000	-0.0423	
551.20000	-0.0423	
551.40000	-0.0423	
551.60000	-0.0427	
551.80000	-0.0424	
552.00000	-0.0427	
552.20000	-0.0429	
552.40000	-0.0427	
552.60000	-0.0432	
552.80000	-0.0430	
553.00000	-0.0430	
553.20000	-0.0432	
553.40000	-0.0432	
553.60000	-0.0430	
553.80000	-0.0426	
554.00000	-0.0432	
554.20000	-0.0432	
554.40000	-0.0426	
554.60000	-0.0427	
554.80000	-0.0424	
555.00000	-0.0424	
555.20000	-0.0423	
555.40000	-0.0421	
555.60000	-0.0420	
555.80000	-0.0420	
556.00000	-0.0420	
556.20000	-0.0420	
556.40000	-0.0418	
556.60000	-0.0415	
556.80000	-0.0412	
557.00000	-0.0412	
557.20000	-0.0409	
557.40000	-0.0407	
557.60000	-0.0407	
557.80000	-0.0407	
558.00000	-0.0409	
558.20000	-0.0407	
558.40000	-0.0403	
558.60000	-0.0404	
558.80000	-0.0403	
559.00000	-0.0401	
559.20000	-0.0400	
559.40000	-0.0398	
559.60000	-0.0398	
559.80000	-0.0397	
560.00000	-0.0397	
560.20000	-0.0394	
560.40000	-0.0394	
560.60000	-0.0391	
560.80000	-0.0394	
561.00000	-0.0388	
561.20000	-0.0388	
561.40000	-0.0388	
561.60000	-0.0389	
561.80000	-0.0388	
562.00000	-0.0385	
562.20000	-0.0383	
562.40000	-0.0386	
562.60000	-0.0386	
562.80000	-0.0386	
563.00000	-0.0385	
563.20000	-0.0386	
563.40000	-0.0386	
563.60000	-0.0386	
563.80000	-0.0389	
564.00000	-0.0391	
564.20000	-0.0391	
564.40000	-0.0389	
564.60000	-0.0394	
564.80000	-0.0391	
565.00000	-0.0395	
565.20000	-0.0397	
565.40000	-0.0395	
565.60000	-0.0395	
565.80000	-0.0400	
566.00000	-0.0403	
566.20000	-0.0404	
566.40000	-0.0406	
566.60000	-0.0407	
566.80000	-0.0410	
567.00000	-0.0410	
567.20000	-0.0412	
567.40000	-0.0410	
567.60000	-0.0415	
567.80000	-0.0418	
568.00000	-0.0417	
568.20000	-0.0418	
568.40000	-0.0421	
568.60000	-0.0424	
568.80000	-0.0426	
569.00000	-0.0430	
569.20000	-0.0433	
569.40000	-0.0429	
569.60000	-0.0430	
569.80000	-0.0432	
570.00000	-0.0432	
570.20000	-0.0432	
570.40000	-0.0430	
570.60000	-0.0432	
570.80000	-0.0430	
571.00000	-0.0426	
571.20000	-0.0426	
571.40000	-0.0426	
571.60000	-0.0423	
571.80000	-0.0424	
572.00000	-0.0423	
572.20000	-0.0421	
572.40000	-0.0421	
572.60000	-0.0421	
572.80000	-0.0423	
573.00000	-0.0421	
573.20000	-0.0420	
573.40000	-0.0418	
573.60000	-0.0418	
573.80000	-0.0417	
574.00000	-0.0420	
574.20000	-0.0420	
574.40000	-0.0415	
574.60000	-0.0412	
574.80000	-0.0409	
575.00000	-0.0407	
575.20000	-0.0407	
575.40000	-0.0407	
575.60000	-0.0406	
575.80000	-0.0403	
576.00000	-0.0401	
576.20000	-0.0400	
576.40000	-0.0401	
576.60000	-0.0401	
576.80000	-0.0400	
577.00000	-0.0397	
577.20000	-0.0398	
577.40000	-0.0397	
577.60000	-0.0398	
577.80000	-0.0395	
578.00000	-0.0391	
578.20000	-0.0394	
578.40000	-0.0391	
578.60000	-0.0388	
578.80000	-0.0386	
579.00000	-0.0386	
579.20000	-0.0386	
579.40000	-0.0391	
579.60000	-0.0397	
579.80000	-0.0395	
580.00000	-0.0395	
580.20000	-0.0394	
580.40000	-0.0395	
580.60000	-0.0389	
580.80000	-0.0388	
581.00000	-0.0391	
581.20000	-0.0389	
581.40000	-0.0391	
581.60000	-0.0398	
581.80000	-0.0397	
582.00000	-0.0400	
582.20000	-0.0400	
582.40000	-0.0401	
582.60000	-0.0400	
582.80000	-0.0406	
583.00000	-0.0407	
583.20000	-0.0409	
583.40000	-0.0410	
583.60000	-0.0410	
583.80000	-0.0412	
584.00000	-0.0415	
584.20000	-0.0420	
584.40000	-0.0418	
584.60000	-0.0418	
584.80000	-0.0423	
585.00000	-0.0424	
585.20000	-0.0421	
585.40000	-0.0426	
585.60000	-0.0429	
585.80000	-0.0432	
586.00000	-0.0430	
586.20000	-0.0432	
586.40000	-0.0436	
586.60000	-0.0433	
586.80000	-0.0436	
587.00000	-0.0432	
587.20000	-0.0433	
587.40000	-0.0436	
587.60000	-0.0436	
587.80000	-0.0436	
588.00000	-0.0433	
588.20000	-0.0433	
588.40000	-0.0432	
588.60000	-0.0430	
588.80000	-0.0427	
589.00000	-0.0429	
589.20000	-0.0429	
589.40000	-0.0429	
589.60000	-0.0426	
589.80000	-0.0424	
590.00000	-0.0426	
590.20000	-0.0423	
590.40000	-0.0421	
590.60000	-0.0418	
590.80000	-0.0420	
591.00000	-0.0421	
591.20000	-0.0415	
591.40000	-0.0415	
591.60000	-0.0415	
591.80000	-0.0409	
592.00000	-0.0415	
592.20000	-0.0412	
592.40000	-0.0407	
592.60000	-0.0407	
592.80000	-0.0404	
593.00000	-0.0403	
593.20000	-0.0403	
593.40000	-0.0404	
593.60000	-0.0404	
593.80000	-0.0398	
594.00000	-0.0398	
594.20000	-0.0398	
594.40000	-0.0395	
594.60000	-0.0394	
594.80000	-0.0395	
595.00000	-0.0391	
595.20000	-0.0391	
595.40000	-0.0391	
595.60000	-0.0388	
595.80000	-0.0388	
596.00000	-0.0394	
596.20000	-0.0391	
596.40000	-0.0391	
596.60000	-0.0385	
596.80000	-0.0388	
597.00000	-0.0389	
597.20000	-0.0388	
597.40000	-0.0389	
597.60000	-0.0389	
597.80000	-0.0388	
598.00000	-0.0389	
598.20000	-0.0389	
598.40000	-0.0394	
598.60000	-0.0391	
598.80000	-0.0395	
599.00000	-0.0397	
599.20000	-0.0398	
599.40000	-0.0401	
599.60000	-0.0404	
599.80000	-0.0407	
600.00000	-0.0407	
600.20000	-0.0412	
600.40000	-0.0407	
600.60000	-0.0410	
600.80000	-0.0412	
601.00000	-0.0412	
601.20000	-0.0415	
601.40000	-0.0418	
601.60000	-0.0418	
601.80000	-0.0421	
602.00000	-0.0421	
602.20000	-0.0426	
602.40000	-0.0426	
602.60000	-0.0427	
602.80000	-0.0429	
603.00000	-0.0430	
603.20000	-0.0429	
603.40000	-0.0429	
603.60000	-0.0430	
603.80000	-0.0429	
604.00000	-0.0427	
604.20000	-0.0424	
604.40000	-0.0426	
604.60000	-0.0429	
604.80000	-0.0424	
605.00000	-0.0426	
605.20000	-0.0427	
605.40000	-0.0426	
605.60000	-0.0424	
605.80000	-0.0424	
606.00000	-0.0421	
606.20000	-0.0421	
606.40000	-0.0420	
606.60000	-0.0420	
606.80000	-0.0417	
607.00000	-0.0417	
607.20000	-0.0415	
607.40000	-0.0418	
607.60000	-0.0415	
607.80000	-0.0412	
608.00000	-0.0410	
608.20000	-0.0410	
608.40000	-0.0409	
608.60000	-0.0407	
608.80000	-0.0406	
609.00000	-0.0409	
609.20000	-0.0409	
609.40000	-0.0403	
609.60000	-0.0403	
609.80000	-0.0404	
610.00000	-0.0400	
610.20000	-0.0401	
610.40000	-0.0400	
610.60000	-0.0400	
610.80000	-0.0397	
611.00000	-0.0394	
611.20000	-0.0394	
611.40000	-0.0391	
611.60000	-0.0389	
611.80000	-0.0389	
612.00000	-0.0388	
612.20000	-0.0388	
612.40000	-0.0391	
612.60000	-0.0388	
612.80000	-0.0389	
613.00000	-0.0391	
613.20000	-0.0389	
613.40000	-0.0388	
613.60000	-0.0388	
613.80000	-0.0389	
614.00000	-0.0391	
614.20000	-0.0388	
614.40000	-0.0389	
614.60000	-0.0389	
614.80000	-0.0391	
615.00000	-0.0395	
615.20000	-0.0397	
615.40000	-0.0397	
615.60000	-0.0398	
615.80000	-0.0398	
616.00000	-0.0401	
616.20000	-0.0404	
616.40000	-0.0404	
616.60000	-0.0407	
616.80000	-0.0407	
617.00000	-0.0407	
617.20000	-0.0409	
617.40000	-0.0415	
617.60000	-0.0417	
617.80000	-0.0418	
618.00000	-0.0420	
618.20000	-0.0420	
618.40000	-0.0421	
618.60000	-0.0423	
618.80000	-0.0427	
619.00000	-0.0429	
619.20000	-0.0429	
619.40000	-0.0427	
619.60000	-0.0432	
619.80000	-0.0429	
620.00000	-0.0430	
620.20000	-0.0429	
620.40000	-0.0429	
620.60000	-0.0430	
620.80000	-0.0429	
621.00000	-0.0427	
621.20000	-0.0427	
621.40000	-0.0427	
621.60000	-0.0424	
621.80000	-0.0421	
622.00000	-0.0421	
622.20000	-0.0421	
622.40000	-0.0420	
622.60000	-0.0418	
622.80000	-0.0421	
623.00000	-0.0420	
623.20000	-0.0415	
623.40000	-0.0415	
623.60000	-0.0415	
623.80000	-0.0412	
624.00000	-0.0415	
624.20000	-0.0415	
624.40000	-0.0410	
624.60000	-0.0410	
624.80000	-0.0409	
625.00000	-0.0407	
625.20000	-0.0407	
625.40000	-0.0404	
625.60000	-0.0409	
625.80000	-0.0406	
626.00000	-0.0398	
626.20000	-0.0401	
626.40000	-0.0398	
626.60000	-0.0398	
626.80000	-0.0397	
627.00000	-0.0397	
627.20000	-0.0394	
627.40000	-0.0391	
627.60000	-0.0389	
627.80000	-0.0389	
628.00000	-0.0386	
628.20000	-0.0388	
628.40000	-0.0388	
628.60000	-0.0385	
628.80000	-0.0385	
629.00000	-0.0383	
629.20000	-0.0383	
629.40000	-0.0385	
629.60000	-0.0385	
629.80000	-0.0385	
630.00000	-0.0385	
630.20000	-0.0385	
630.40000	-0.0388	
630.60000	-0.0386	
630.80000	-0.0386	
631.00000	-0.0386	
631.20000	-0.0385	
631.40000	-0.0388	
631.60000	-0.0388	
631.80000	-0.0388	
632.00000	-0.0391	
632.20000	-0.0394	
632.40000	-0.0391	
632.60000	-0.0398	
632.80000	-0.0398	
633.00000	-0.0401	
633.20000	-0.0404	
633.40000	-0.0406	
633.60000	-0.0404	
633.80000	-0.0404	
634.00000	-0.0409	
634.20000	-0.0415	
634.40000	-0.0410	
634.60000	-0.0410	
634.80000	-0.0415	
635.00000	-0.0415	
635.20000	-0.0418	
635.40000	-0.0418	
635.60000	-0.0424	
635.80000	-0.0423	
636.00000	-0.0426	
636.20000	-0.0427	
636.40000	-0.0424	
636.60000	-0.0427	
636.80000	-0.0426	
637.00000	-0.0426	
637.20000	-0.0421	
637.40000	-0.0426	
637.60000	-0.0424	
637.80000	-0.0421	
638.00000	-0.0423	
638.20000	-0.0424	
638.40000	-0.0420	
638.60000	-0.0423	
638.80000	-0.0421	
639.00000	-0.0421	
639.20000	-0.0418	
639.40000	-0.0418	
639.60000	-0.0417	
639.80000	-0.0415	
640.00000	-0.0412	
640.20000	-0.0410	
640.40000	-0.0415	
640.60000	-0.0412	
640.80000	-0.0407	
641.00000	-0.0407	
641.20000	-0.0404	
641.40000	-0.0404	
641.60000	-0.0401	
641.80000	-0.0398	
642.00000	-0.0401	
642.20000	-0.0398	
642.40000	-0.0398	
642.60000	-0.0398	
642.80000	-0.0398	
643.00000	-0.0395	
643.20000	-0.0395	
643.40000	-0.0395	
643.60000	-0.0391	
643.80000	-0.0389	
644.00000	-0.0389	
644.20000	-0.0389	
644.40000	-0.0388	
644.60000	-0.0385	
644.80000	-0.0383	
645.00000	-0.0385	
645.20000	-0.0385	
645.40000	-0.0381	
645.60000	-0.0378	
645.80000	-0.0383	
646.00000	-0.0385	
646.20000	-0.0383	
646.40000	-0.0383	
646.60000	-0.0381	
646.80000	-0.0383	
647.00000	-0.0385	
647.20000	-0.0380	
647.40000	-0.0380	
647.60000	-0.0385	
647.80000	-0.0385	
648.00000	-0.0385	
648.20000	-0.0386	
648.40000	-0.0389	
648.60000	-0.0389	
648.80000	-0.0389	
649.00000	-0.0394	
649.20000	-0.0395	
649.40000	-0.0391	
649.60000	-0.0400	
649.80000	-0.0400	
650.00000	-0.0401	
650.20000	-0.0403	
650.40000	-0.0407	
650.60000	-0.0406	
650.80000	-0.0406	
651.00000	-0.0412	
651.20000	-0.0412	
651.40000	-0.0417	
651.60000	-0.0415	
651.80000	-0.0420	
652.00000	-0.0417	
652.20000	-0.0423	
652.40000	-0.0424	
652.60000	-0.0424	
652.80000	-0.0427	
653.00000	-0.0429	
653.20000	-0.0426	
653.40000	-0.0427	
653.60000	-0.0427	
653.80000	-0.0426	
654.00000	-0.0426	
654.20000	-0.0426	
654.40000	-0.0424	
654.60000	-0.0421	
654.80000	-0.0420	
655.00000	-0.0421	
655.20000	-0.0418	
655.40000	-0.0418	
655.60000	-0.0417	
655.80000	-0.0418	
656.00000	-0.0418	
656.20000	-0.0415	
656.40000	-0.0415	
656.60000	-0.0412	
656.80000	-0.0410	
657.00000	-0.0409	
657.20000	-0.0407	
657.40000	-0.0406	
657.60000	-0.0403	
657.80000	-0.0401	
658.00000	-0.0401	
658.20000	-0.0401	
658.40000	-0.0398	
658.60000	-0.0398	
658.80000	-0.0398	
659.00000	-0.0397	
659.20000	-0.0397	
659.40000	-0.0395	
659.60000	-0.0397	
659.80000	-0.0391	
660.00000	-0.0391	
660.20000	-0.0394	
660.40000	-0.0389	
660.60000	-0.0388	
660.80000	-0.0386	
661.00000	-0.0385	
661.20000	-0.0385	
661.40000	-0.0383	
661.60000	-0.0381	
661.80000	-0.0380	
662.00000	-0.0381	
662.20000	-0.0380	
662.40000	-0.0381	
662.60000	-0.0380	
662.80000	-0.0386	
663.00000	-0.0381	
663.20000	-0.0381	
663.40000	-0.0383	
663.60000	-0.0381	
663.80000	-0.0381	
664.00000	-0.0383	
664.20000	-0.0385	
664.40000	-0.0385	
664.60000	-0.0385	
664.80000	-0.0386	
665.00000	-0.0388	
665.20000	-0.0386	
665.40000	-0.0389	
665.60000	-0.0394	
665.80000	-0.0389	
666.00000	-0.0394	
666.20000	-0.0398	
666.40000	-0.0401	
666.60000	-0.0400	
666.80000	-0.0401	
667.00000	-0.0401	
667.20000	-0.0400	
667.40000	-0.0403	
667.60000	-0.0406	
667.80000	-0.0407	
668.00000	-0.0407	
668.20000	-0.0410	
668.40000	-0.0410	
668.60000	-0.0412	
668.80000	-0.0415	
669.00000	-0.0418	
669.20000	-0.0418	
669.40000	-0.0420	
669.60000	-0.0420	
669.80000	-0.0424	
670.00000	-0.0423	
670.20000	-0.0421	
670.40000	-0.0420	
670.60000	-0.0421	
670.80000	-0.0420	
671.00000	-0.0418	
671.20000	-0.0418	
671.40000	-0.0420	
671.60000	-0.0420	
671.80000	-0.0418	
672.00000	-0.0415	
672.20000	-0.0412	
672.40000	-0.0415	
672.60000	-0.0415	
672.80000	-0.0412	
673.00000	-0.0412	
673.20000	-0.0415	
673.40000	-0.0410	
673.60000	-0.0410	
673.80000	-0.0410	
674.00000	-0.0410	
674.20000	-0.0407	
674.40000	-0.0406	
674.60000	-0.0401	
674.80000	-0.0401	
675.00000	-0.0400	
675.20000	-0.0395	
675.40000	-0.0394	
675.60000	-0.0394	
675.80000	-0.0394	
676.00000	-0.0391	
676.20000	-0.0389	
676.40000	-0.0388	
676.60000	-0.0386	
676.80000	-0.0386	
677.00000	-0.0383	
677.20000	-0.0383	
677.40000	-0.0381	
677.60000	-0.0380	
677.80000	-0.0378	
678.00000	-0.0381	
678.20000	-0.0378	
678.40000	-0.0378	
678.60000	-0.0378	
678.80000	-0.0380	
679.00000	-0.0383	
679.20000	-0.0381	
679.40000	-0.0385	
679.60000	-0.0385	
679.80000	-0.0388	
680.00000	-0.0386	
680.20000	-0.0386	
680.40000	-0.0385	
680.60000	-0.0386	
680.80000	-0.0381	
681.00000	-0.0385	
681.20000	-0.0385	
681.40000	-0.0385	
681.60000	-0.0388	
681.80000	-0.0388	
682.00000	-0.0388	
682.20000	-0.0388	
682.40000	-0.0391	
682.60000	-0.0389	
682.80000	-0.0394	
683.00000	-0.0398	
683.20000	-0.0400	
683.40000	-0.0398	
683.60000	-0.0400	
683.80000	-0.0400	
684.00000	-0.0401	
684.20000	-0.0404	
684.40000	-0.0404	
684.60000	-0.0406	
684.80000	-0.0406	
685.00000	-0.0410	
685.20000	-0.0412	
685.40000	-0.0415	
685.60000	-0.0415	
685.80000	-0.0418	
686.00000	-0.0420	
686.20000	-0.0420	
686.40000	-0.0417	
686.60000	-0.0417	
686.80000	-0.0421	
687.00000	-0.0423	
687.20000	-0.0417	
687.40000	-0.0421	
687.60000	-0.0418	
687.80000	-0.0418	
688.00000	-0.0417	
688.20000	-0.0415	
688.40000	-0.0415	
688.60000	-0.0410	
688.80000	-0.0412	
689.00000	-0.0410	
689.20000	-0.0409	
689.40000	-0.0410	
689.60000	-0.0406	
689.80000	-0.0407	
690.00000	-0.0407	
690.20000	-0.0403	
690.40000	-0.0403	
690.60000	-0.0403	
690.80000	-0.0403	
691.00000	-0.0400	
691.20000	-0.0398	
691.40000	-0.0400	
691.60000	-0.0398	
691.80000	-0.0394	
692.00000	-0.0391	
692.20000	-0.0394	
692.40000	-0.0389	
692.60000	-0.0388	
692.80000	-0.0385	
693.00000	-0.0386	
693.20000	-0.0383	
693.40000	-0.0385	
693.60000	-0.0381	
693.80000	-0.0381	
694.00000	-0.0380	
694.20000	-0.0381	
694.40000	-0.0380	
694.60000	-0.0378	
694.80000	-0.0378	
695.00000	-0.0380	
695.20000	-0.0380	
695.40000	-0.0377	
695.60000	-0.0375	
695.80000	-0.0377	
696.00000	-0.0377	
696.20000	-0.0381	
696.40000	-0.0378	
696.60000	-0.0378	
696.80000	-0.0380	
697.00000	-0.0380	
697.20000	-0.0378	
697.40000	-0.0380	
697.60000	-0.0380	
697.80000	-0.0378	
698.00000	-0.0378	
698.20000	-0.0380	
698.40000	-0.0378	
698.60000	-0.0383	
698.80000	-0.0383	
699.00000	-0.0383	
699.20000	-0.0388	
699.40000	-0.0386	
699.60000	-0.0394	
699.80000	-0.0395	
700.00000	-0.0398	
700.20000	-0.0397	
700.40000	-0.0398	
700.60000	-0.0401	
700.80000	-0.0400	
701.00000	-0.0400	
701.20000	-0.0403	
701.40000	-0.0403	
701.60000	-0.0404	
701.80000	-0.0407	
702.00000	-0.0409	
702.20000	-0.0415	
702.40000	-0.0417	
702.60000	-0.0417	
702.80000	-0.0418	
703.00000	-0.0423	
703.20000	-0.0421	
703.40000	-0.0421	
703.60000	-0.0418	
703.80000	-0.0417	
704.00000	-0.0417	
704.20000	-0.0420	
704.40000	-0.0418	
704.60000	-0.0415	
704.80000	-0.0415	
705.00000	-0.0417	
705.20000	-0.0412	
705.40000	-0.0412	
705.60000	-0.0412	
705.80000	-0.0407	
706.00000	-0.0412	
706.20000	-0.0407	
706.40000	-0.0407	
706.60000	-0.0407	
706.80000	-0.0406	
707.00000	-0.0404	
707.20000	-0.0401	
707.40000	-0.0401	
707.60000	-0.0400	
707.80000	-0.0398	
708.00000	-0.0395	
708.20000	-0.0395	
708.40000	-0.0391	
708.60000	-0.0394	
708.80000	-0.0391	
709.00000	-0.0388	
709.20000	-0.0388	
709.40000	-0.0386	
709.60000	-0.0386	
709.80000	-0.0386	
710.00000	-0.0386	
710.20000	-0.0383	
710.40000	-0.0381	
710.60000	-0.0380	
710.80000	-0.0378	
711.00000	-0.0377	
711.20000	-0.0377	
711.40000	-0.0378	
711.60000	-0.0375	
711.80000	-0.0375	
712.00000	-0.0372	
712.20000	-0.0372	
712.40000	-0.0372	
712.60000	-0.0374	
712.80000	-0.0377	
713.00000	-0.0377	
713.20000	-0.0372	
713.40000	-0.0374	
713.60000	-0.0374	
713.80000	-0.0375	
714.00000	-0.0375	
714.20000	-0.0378	
714.40000	-0.0377	
714.60000	-0.0377	
714.80000	-0.0380	
715.00000	-0.0383	
715.20000	-0.0383	
715.40000	-0.0381	
715.60000	-0.0386	
715.80000	-0.0386	
716.00000	-0.0385	
716.20000	-0.0388	
716.40000	-0.0391	
716.60000	-0.0394	
716.80000	-0.0395	
717.00000	-0.0397	
717.20000	-0.0395	
717.40000	-0.0400	
717.60000	-0.0401	
717.80000	-0.0404	
718.00000	-0.0406	
718.20000	-0.0406	
718.40000	-0.0407	
718.60000	-0.0407	
718.80000	-0.0409	
719.00000	-0.0415	
719.20000	-0.0418	
719.40000	-0.0418	
719.60000	-0.0420	
719.80000	-0.0423	
720.00000	-0.0424	
720.20000	-0.0423	
720.40000	-0.0424	
720.60000	-0.0424	
720.80000	-0.0421	
721.00000	-0.0420	
721.20000	-0.0418	
721.40000	-0.0415	
721.60000	-0.0412	
721.80000	-0.0415	
722.00000	-0.0412	
722.20000	-0.0410	
722.40000	-0.0412	
722.60000	-0.0412	
722.80000	-0.0410	
723.00000	-0.0410	
723.20000	-0.0407	
723.40000	-0.0407	
723.60000	-0.0404	
723.80000	-0.0401	
724.00000	-0.0400	
724.20000	-0.0401	
724.40000	-0.0397	
724.60000	-0.0395	
724.80000	-0.0395	
725.00000	-0.0394	
725.20000	-0.0389	
725.40000	-0.0389	
725.60000	-0.0391	
725.80000	-0.0386	
726.00000	-0.0381	
726.20000	-0.0381	
726.40000	-0.0380	
726.60000	-0.0380	
726.80000	-0.0378	
727.00000	-0.0380	
727.20000	-0.0378	
727.40000	-0.0374	
727.60000	-0.0374	
727.80000	-0.0375	
728.00000	-0.0377	
728.20000	-0.0372	
728.40000	-0.0374	
728.60000	-0.0372	
728.80000	-0.0372	
729.00000	-0.0374	
729.20000	-0.0372	
729.40000	-0.0374	
729.60000	-0.0375	
729.80000	-0.0374	
730.00000	-0.0369	
730.20000	-0.0374	
730.40000	-0.0375	
730.60000	-0.0378	
730.80000	-0.0377	
731.00000	-0.0375	
731.20000	-0.0375	
731.40000	-0.0378	
731.60000	-0.0377	
731.80000	-0.0380	
732.00000	-0.0380	
732.20000	-0.0381	
732.40000	-0.0385	
732.60000	-0.0388	
732.80000	-0.0391	
733.00000	-0.0395	
733.20000	-0.0395	
733.40000	-0.0397	
733.60000	-0.0400	
733.80000	-0.0398	
734.00000	-0.0401	
734.20000	-0.0403	
734.40000	-0.0401	
734.60000	-0.0404	
734.80000	-0.0406	
735.00000	-0.0407	
735.20000	-0.0407	
735.40000	-0.0409	
735.60000	-0.0415	
735.80000	-0.0412	
736.00000	-0.0412	
736.20000	-0.0415	
736.40000	-0.0410	
736.60000	-0.0415	
736.80000	-0.0415	
737.00000	-0.0410	
737.20000	-0.0409	
737.40000	-0.0412	
737.60000	-0.0407	
737.80000	-0.0406	
738.00000	-0.0410	
738.20000	-0.0404	
738.40000	-0.0406	
738.60000	-0.0407	
738.80000	-0.0406	
739.00000	-0.0404	
739.20000	-0.0404	
739.40000	-0.0404	
739.60000	-0.0404	
739.80000	-0.0404	
740.00000	-0.0404	
740.20000	-0.0400	
740.40000	-0.0400	
740.60000	-0.0401	
740.80000	-0.0398	
741.00000	-0.0398	
741.20000	-0.0397	
741.40000	-0.0391	
741.60000	-0.0389	
741.80000	-0.0389	
742.00000	-0.0386	
742.20000	-0.0385	
742.40000	-0.0386	
742.60000	-0.0383	
742.80000	-0.0381	
743.00000	-0.0378	
743.20000	-0.0380	
743.40000	-0.0380	
743.60000	-0.0380	
743.80000	-0.0380	
744.00000	-0.0375	
744.20000	-0.0377	
744.40000	-0.0377	
744.60000	-0.0375	
744.80000	-0.0374	
745.00000	-0.0375	
745.20000	-0.0372	
745.40000	-0.0372	
745.60000	-0.0372	
745.80000	-0.0372	
746.00000	-0.0372	
746.20000	-0.0375	
746.40000	-0.0374	
746.60000	-0.0374	
746.80000	-0.0368	
747.00000	-0.0372	
747.20000	-0.0375	
747.40000	-0.0375	
747.60000	-0.0374	
747.80000	-0.0375	
748.00000	-0.0378	
748.20000	-0.0380	
748.40000	-0.0380	
748.60000	-0.0381	
748.80000	-0.0383	
749.00000	-0.0381	
749.20000	-0.0383	
749.40000	-0.0386	
749.60000	-0.0389	
749.80000	-0.0394	
750.00000	-0.0395	
750.20000	-0.0398	
750.40000	-0.0398	
750.60000	-0.0398	
750.80000	-0.0401	
751.00000	-0.0401	
751.20000	-0.0401	
751.40000	-0.0400	
751.60000	-0.0403	
751.80000	-0.0407	
752.00000	-0.0406	
752.20000	-0.0406	
752.40000	-0.0412	
752.60000	-0.0412	
752.80000	-0.0412	
753.00000	-0.0412	
753.20000	-0.0412	
753.40000	-0.0409	
753.60000	-0.0412	
753.80000	-0.0412	
754.00000	-0.0412	
754.20000	-0.0409	
754.40000	-0.0409	
754.60000	-0.0406	
754.80000	-0.0407	
755.00000	-0.0404	
755.20000	-0.0404	
755.40000	-0.0401	
755.60000	-0.0403	
755.80000	-0.0403	
756.00000	-0.0400	
756.20000	-0.0400	
756.40000	-0.0401	
756.60000	-0.0401	
756.80000	-0.0397	
757.00000	-0.0395	
757.20000	-0.0394	
757.40000	-0.0391	
757.60000	-0.0394	
757.80000	-0.0394	
758.00000	-0.0389	
758.20000	-0.0389	
758.40000	-0.0388	
758.60000	-0.0386	
758.80000	-0.0386	
759.00000	-0.0385	
759.20000	-0.0385	
759.40000	-0.0378	
759.60000	-0.0378	
759.80000	-0.0380	
760.00000	-0.0377	
760.20000	-0.0374	
760.40000	-0.0374	
760.60000	-0.0372	
760.80000	-0.0372	
761.00000	-0.0369	
761.20000	-0.0368	
761.40000	-0.0369	
761.60000	-0.0372	
761.80000	-0.0368	
762.00000	-0.0369	
762.20000	-0.0366	
762.40000	-0.0366	
762.60000	-0.0369	
762.80000	-0.0374	
763.00000	-0.0374	
763.20000	-0.0372	
763.40000	-0.0369	
763.60000	-0.0374	
763.80000	-0.0369	
764.00000	-0.0374	
764.20000	-0.0372	
764.40000	-0.0369	
764.60000	-0.0372	
764.80000	-0.0368	
765.00000	-0.0372	
765.20000	-0.0377	
765.40000	-0.0375	
765.60000	-0.0381	
765.80000	-0.0377	
766.00000	-0.0381	
766.20000	-0.0383	
766.40000	-0.0386	
766.60000	-0.0386	
766.80000	-0.0388	
767.00000	-0.0389	
767.20000	-0.0391	
767.40000	-0.0394	
767.60000	-0.0397	
767.80000	-0.0397	
768.00000	-0.0397	
768.20000	-0.0398	
768.40000	-0.0401	
768.60000	-0.0401	
768.80000	-0.0404	
769.00000	-0.0407	
769.20000	-0.0407	
769.40000	-0.0415	
769.60000	-0.0412	
769.80000	-0.0409	
770.00000	-0.0415	
770.20000	-0.0410	
770.40000	-0.0410	
770.60000	-0.0410	
770.80000	-0.0409	
771.00000	-0.0410	
771.20000	-0.0407	
771.40000	-0.0410	
771.60000	-0.0404	
771.80000	-0.0407	
772.00000	-0.0406	
772.20000	-0.0407	
772.40000	-0.0404	
772.60000	-0.0404	
772.80000	-0.0404	
773.00000	-0.0406	
773.20000	-0.0406	
773.40000	-0.0404	
773.60000	-0.0401	
773.80000	-0.0401	
774.00000	-0.0398	
774.20000	-0.0398	
774.40000	-0.0394	
774.60000	-0.0394	
774.80000	-0.0395	
775.00000	-0.0389	
775.20000	-0.0386	
775.40000	-0.0386	
775.60000	-0.0386	
775.80000	-0.0385	
776.00000	-0.0383	
776.20000	-0.0381	
776.40000	-0.0381	
776.60000	-0.0381	
776.80000	-0.0381	
777.00000	-0.0378	
777.20000	-0.0378	
777.40000	-0.0378	
777.60000	-0.0378	
777.80000	-0.0374	
778.00000	-0.0374	
778.20000	-0.0372	
778.40000	-0.0372	
778.60000	-0.0369	
778.80000	-0.0369	
779.00000	-0.0368	
779.20000	-0.0377	
779.40000	-0.0372	
779.60000	-0.0375	
779.80000	-0.0378	
780.00000	-0.0375	
780.20000	-0.0375	
780.40000	-0.0374	
780.60000	-0.0378	
780.80000	-0.0377	
781.00000	-0.0375	
781.20000	-0.0378	
781.40000	-0.0380	
781.60000	-0.0381	
781.80000	-0.0385	
782.00000	-0.0385	
782.20000	-0.0386	
782.40000	-0.0385	
782.60000	-0.0385	
782.80000	-0.0391	
783.00000	-0.0394	
783.20000	-0.0398	
783.40000	-0.0397	
783.60000	-0.0400	
783.80000	-0.0401	
784.00000	-0.0401	
784.20000	-0.0400	
784.40000	-0.0406	
784.60000	-0.0404	
784.80000	-0.0406	
785.00000	-0.0407	
785.20000	-0.0410	
785.40000	-0.0412	
785.60000	-0.0415	
785.80000	-0.0420	
786.00000	-0.0418	
786.20000	-0.0421	
786.40000	-0.0421	
786.60000	-0.0423	
786.80000	-0.0421	
787.00000	-0.0421	
787.20000	-0.0421	
787.40000	-0.0418	
787.60000	-0.0418	
787.80000	-0.0417	
788.00000	-0.0415	
788.20000	-0.0415	
788.40000	-0.0415	
788.60000	-0.0415	
788.80000	-0.0409	
789.00000	-0.0412	
789.20000	-0.0410	
789.40000	-0.0410	
789.60000	-0.0407	
789.80000	-0.0407	
790.00000	-0.0406	
790.20000	-0.0404	
790.40000	-0.0403	
790.60000	-0.0401	
790.80000	-0.0398	
791.00000	-0.0400	
791.20000	-0.0401	
791.40000	-0.0397	
791.60000	-0.0394	
791.80000	-0.0394	
792.00000	-0.0388	
792.20000	-0.0389	
792.40000	-0.0389	
792.60000	-0.0385	
792.80000	-0.0385	
793.00000	-0.0386	
793.20000	-0.0381	
793.40000	-0.0383	
793.60000	-0.0385	
793.80000	-0.0381	
794.00000	-0.0381	
794.20000	-0.0380	
794.40000	-0.0378	
794.60000	-0.0377	
794.80000	-0.0378	
795.00000	-0.0378	
795.20000	-0.0377	
795.40000	-0.0378	
795.60000	-0.0377	
795.80000	-0.0377	
796.00000	-0.0377	
796.20000	-0.0380	
796.40000	-0.0380	
796.60000	-0.0383	
796.80000	-0.0380	
797.00000	-0.0381	
797.20000	-0.0383	
797.40000	-0.0385	
797.60000	-0.0385	
797.80000	-0.0383	
798.00000	-0.0385	
798.20000	-0.0385	
798.40000	-0.0388	
798.60000	-0.0386	
798.80000	-0.0391	
799.00000	-0.0394	
799.20000	-0.0395	
799.40000	-0.0400	
799.60000	-0.0401	
799.80000	-0.0400	
800.00000	-0.0401	
800.20000	-0.0401	
800.40000	-0.0401	
800.60000	-0.0400	
800.80000	-0.0401	
801.00000	-0.0404	
801.20000	-0.0404	
801.40000	-0.0404	
801.60000	-0.0407	
801.80000	-0.0407	
802.00000	-0.0407	
802.20000	-0.0415	
802.40000	-0.0415	
802.60000	-0.0409	
802.80000	-0.0415	
803.00000	-0.0412	
803.20000	-0.0415	
803.40000	-0.0412	
803.60000	-0.0417	
803.80000	-0.0412	
804.00000	-0.0415	
804.20000	-0.0415	
804.40000	-0.0415	
804.60000	-0.0410	
804.80000	-0.0412	
805.00000	-0.0412	
805.20000	-0.0412	
805.40000	-0.0409	
805.60000	-0.0410	
805.80000	-0.0409	
806.00000	-0.0409	
806.20000	-0.0410	
806.40000	-0.0407	
806.60000	-0.0409	
806.80000	-0.0407	
807.00000	-0.0404	
807.20000	-0.0404	
807.40000	-0.0404	
807.60000	-0.0400	
807.80000	-0.0398	
808.00000	-0.0400	
808.20000	-0.0395	
808.40000	-0.0394	
808.60000	-0.0391	
808.80000	-0.0394	
809.00000	-0.0391	
809.20000	-0.0391	
809.40000	-0.0389	
809.60000	-0.0391	
809.80000	-0.0389	
810.00000	-0.0389	
810.20000	-0.0388	
810.40000	-0.0383	
810.60000	-0.0383	
810.80000	-0.0383	
811.00000	-0.0381	
811.20000	-0.0378	
811.40000	-0.0380	
811.60000	-0.0380	
811.80000	-0.0378	
812.00000	-0.0377	
812.20000	-0.0375	
812.40000	-0.0375	
812.60000	-0.0377	
812.80000	-0.0380	
813.00000	-0.0380	
813.20000	-0.0378	
813.40000	-0.0378	
813.60000	-0.0378	
813.80000	-0.0380	
814.00000	-0.0380	
814.20000	-0.0380	
814.40000	-0.0381	
814.60000	-0.0381	
814.80000	-0.0385	
815.00000	-0.0386	
815.20000	-0.0389	
815.40000	-0.0391	
815.60000	-0.0389	
815.80000	-0.0391	
816.00000	-0.0397	
816.20000	-0.0398	
816.40000	-0.0398	
816.60000	-0.0401	
816.80000	-0.0404	
817.00000	-0.0404	
817.20000	-0.0404	
817.40000	-0.0409	
817.60000	-0.0409	
817.80000	-0.0410	
818.00000	-0.0412	
818.20000	-0.0412	
818.40000	-0.0410	
818.60000	-0.0417	
818.80000	-0.0418	
819.00000	-0.0415	
819.20000	-0.0420	
819.40000	-0.0421	
819.60000	-0.0420	
819.80000	-0.0421	
820.00000	-0.0420	
820.20000	-0.0418	
820.40000	-0.0418	
820.60000	-0.0420	
820.80000	-0.0418	
821.00000	-0.0415	
821.20000	-0.0410	
821.40000	-0.0409	
821.60000	-0.0409	
821.80000	-0.0412	
822.00000	-0.0410	
822.20000	-0.0410	
822.40000	-0.0407	
822.60000	-0.0407	
822.80000	-0.0407	
823.00000	-0.0406	
823.20000	-0.0406	
823.40000	-0.0404	
823.60000	-0.0401	
823.80000	-0.0403	
824.00000	-0.0401	
824.20000	-0.0404	
824.40000	-0.0398	
824.60000	-0.0397	
824.80000	-0.0398	
825.00000	-0.0395	
825.20000	-0.0395	
825.40000	-0.0394	
825.60000	-0.0389	
825.80000	-0.0389	
826.00000	-0.0386	
826.20000	-0.0383	
826.40000	-0.0386	
826.60000	-0.0383	
826.80000	-0.0385	
827.00000	-0.0381	
827.20000	-0.0380	
827.40000	-0.0381	
827.60000	-0.0378	
827.80000	-0.0378	
828.00000	-0.0378	
828.20000	-0.0378	
828.40000	-0.0378	
828.60000	-0.0375	
828.80000	-0.0375	
829.00000	-0.0374	
829.20000	-0.0375	
829.40000	-0.0378	
829.60000	-0.0380	
829.80000	-0.0385	
830.00000	-0.0388	
830.20000	-0.0386	
830.40000	-0.0386	
830.60000	-0.0385	
830.80000	-0.0383	
831.00000	-0.0388	
831.20000	-0.0386	
831.40000	-0.0386	
831.60000	-0.0386	
831.80000	-0.0389	
832.00000	-0.0391	
832.20000	-0.0391	
832.40000	-0.0394	
832.60000	-0.0395	
832.80000	-0.0398	
833.00000	-0.0398	
833.20000	-0.0401	
833.40000	-0.0398	
833.60000	-0.0400	
833.80000	-0.0401	
834.00000	-0.0401	
834.20000	-0.0404	
834.40000	-0.0406	
834.60000	-0.0407	
834.80000	-0.0409	
835.00000	-0.0412	
835.20000	-0.0407	
835.40000	-0.0410	
835.60000	-0.0420	
835.80000	-0.0417	
836.00000	-0.0418	
836.20000	-0.0418	
836.40000	-0.0417	
836.60000	-0.0418	
836.80000	-0.0415	
837.00000	-0.0415	
837.20000	-0.0415	
837.40000	-0.0415	
837.60000	-0.0415	
837.80000	-0.0410	
838.00000	-0.0412	
838.20000	-0.0410	
838.40000	-0.0409	
838.60000	-0.0410	
838.80000	-0.0407	
839.00000	-0.0410	
839.20000	-0.0406	
839.40000	-0.0406	
839.60000	-0.0404	
839.80000	-0.0403	
840.00000	-0.0403	
840.20000	-0.0401	
840.40000	-0.0400	
840.60000	-0.0398	
840.80000	-0.0395	
841.00000	-0.0395	
841.20000	-0.0389	
841.40000	-0.0389	
841.60000	-0.0388	
841.80000	-0.0388	
842.00000	-0.0386	
842.20000	-0.0385	
842.40000	-0.0385	
842.60000	-0.0381	
842.80000	-0.0381	
843.00000	-0.0381	
843.20000	-0.0377	
843.40000	-0.0380	
843.60000	-0.0377	
843.80000	-0.0375	
844.00000	-0.0375	
844.20000	-0.0374	
844.40000	-0.0366	
844.60000	-0.0372	
844.80000	-0.0372	
845.00000	-0.0372	
845.20000	-0.0369	
845.40000	-0.0369	
845.60000	-0.0369	
845.80000	-0.0368	
846.00000	-0.0372	
846.20000	-0.0375	
846.40000	-0.0369	
846.60000	-0.0372	
846.80000	-0.0372	
847.00000	-0.0372	
847.20000	-0.0369	
847.40000	-0.0375	
847.60000	-0.0375	
847.80000	-0.0374	
848.00000	-0.0380	
848.20000	-0.0377	
848.40000	-0.0381	
848.60000	-0.0381	
848.80000	-0.0380	
849.00000	-0.0383	
849.20000	-0.0385	
849.40000	-0.0389	
849.60000	-0.0389	
849.80000	-0.0394	
850.00000	-0.0394	
850.20000	-0.0395	
850.40000	-0.0398	
850.60000	-0.0398	
850.80000	-0.0401	
851.00000	-0.0401	
851.20000	-0.0406	
851.40000	-0.0403	
851.60000	-0.0401	
851.80000	-0.0404	
852.00000	-0.0407	
852.20000	-0.0410	
852.40000	-0.0410	
852.60000	-0.0410	
852.80000	-0.0415	
853.00000	-0.0412	
853.20000	-0.0415	
853.40000	-0.0415	
853.60000	-0.0410	
853.80000	-0.0409	
854.00000	-0.0409	
854.20000	-0.0407	
854.40000	-0.0404	
854.60000	-0.0404	
854.80000	-0.0400	
855.00000	-0.0403	
855.20000	-0.0404	
855.40000	-0.0401	
855.60000	-0.0401	
855.80000	-0.0401	
856.00000	-0.0401	
856.20000	-0.0400	
856.40000	-0.0397	
856.60000	-0.0398	
856.80000	-0.0398	
857.00000	-0.0397	
857.20000	-0.0397	
857.40000	-0.0395	
857.60000	-0.0388	
857.80000	-0.0389	
858.00000	-0.0386	
858.20000	-0.0383	
858.40000	-0.0383	
858.60000	-0.0381	
858.80000	-0.0380	
859.00000	-0.0378	
859.20000	-0.0380	
859.40000	-0.0375	
859.60000	-0.0375	
859.80000	-0.0374	
860.00000	-0.0377	
860.20000	-0.0369	
860.40000	-0.0372	
860.60000	-0.0369	
860.80000	-0.0368	
861.00000	-0.0366	
861.20000	-0.0365	
861.40000	-0.0366	
861.60000	-0.0366	
861.80000	-0.0362	
862.00000	-0.0360	
862.20000	-0.0362	
862.40000	-0.0360	
862.60000	-0.0365	
862.80000	-0.0366	
863.00000	-0.0363	
863.20000	-0.0363	
863.40000	-0.0362	
863.60000	-0.0365	
863.80000	-0.0365	
864.00000	-0.0365	
864.20000	-0.0365	
864.40000	-0.0365	
864.60000	-0.0366	
864.80000	-0.0368	
865.00000	-0.0369	
865.20000	-0.0374	
865.40000	-0.0375	
865.60000	-0.0377	
865.80000	-0.0380	
866.00000	-0.0378	
866.20000	-0.0381	
866.40000	-0.0386	
866.60000	-0.0388	
866.80000	-0.0385	
867.00000	-0.0389	
867.20000	-0.0389	
867.40000	-0.0391	
867.60000	-0.0395	
867.80000	-0.0395	
868.00000	-0.0398	
868.20000	-0.0401	
868.40000	-0.0401	
868.60000	-0.0404	
868.80000	-0.0403	
869.00000	-0.0406	
869.20000	-0.0407	
869.40000	-0.0406	
869.60000	-0.0406	
869.80000	-0.0406	
870.00000	-0.0406	
870.20000	-0.0404	
870.40000	-0.0406	
870.60000	-0.0406	
870.80000	-0.0407	
871.00000	-0.0404	
871.20000	-0.0401	
871.40000	-0.0401	
871.60000	-0.0401	
871.80000	-0.0401	
872.00000	-0.0398	
872.20000	-0.0401	
872.40000	-0.0401	
872.60000	-0.0400	
872.80000	-0.0397	
873.00000	-0.0397	
873.20000	-0.0397	
873.40000	-0.0395	
873.60000	-0.0395	
873.80000	-0.0391	
874.00000	-0.0389	
874.20000	-0.0386	
874.40000	-0.0386	
874.60000	-0.0386	
874.80000	-0.0385	
875.00000	-0.0383	
875.20000	-0.0380	
875.40000	-0.0380	
875.60000	-0.0381	
875.80000	-0.0380	
876.00000	-0.0378	
876.20000	-0.0377	
876.40000	-0.0375	
876.60000	-0.0375	
876.80000	-0.0375	
877.00000	-0.0372	
877.20000	-0.0369	
877.40000	-0.0368	
877.60000	-0.0366	
877.80000	-0.0366	
878.00000	-0.0368	
878.20000	-0.0368	
878.40000	-0.0365	
878.60000	-0.0365	
878.80000	-0.0365	
879.00000	-0.0366	
879.20000	-0.0365	
879.40000	-0.0366	
879.60000	-0.0369	
879.80000	-0.0366	
880.00000	-0.0368	
880.20000	-0.0366	
880.40000	-0.0366	
880.60000	-0.0366	
880.80000	-0.0368	
881.00000	-0.0368	
881.20000	-0.0366	
881.40000	-0.0369	
881.60000	-0.0372	
881.80000	-0.0374	
882.00000	-0.0374	
882.20000	-0.0372	
882.40000	-0.0378	
882.60000	-0.0377	
882.80000	-0.0383	
883.00000	-0.0388	
883.20000	-0.0389	
883.40000	-0.0389	
883.60000	-0.0389	
883.80000	-0.0394	
884.00000	-0.0395	
884.20000	-0.0398	
884.40000	-0.0397	
884.60000	-0.0398	
884.80000	-0.0398	
885.00000	-0.0400	
885.20000	-0.0398	
885.40000	-0.0401	
885.60000	-0.0406	
885.80000	-0.0404	
886.00000	-0.0407	
886.20000	-0.0407	
886.40000	-0.0406	
886.60000	-0.0406	
886.80000	-0.0404	
887.00000	-0.0401	
887.20000	-0.0404	
887.40000	-0.0401	
887.60000	-0.0400	
887.80000	-0.0400	
888.00000	-0.0397	
888.20000	-0.0400	
888.40000	-0.0397	
888.60000	-0.0397	
888.80000	-0.0395	
889.00000	-0.0395	
889.20000	-0.0397	
889.40000	-0.0394	
889.60000	-0.0391	
889.80000	-0.0389	
890.00000	-0.0391	
890.20000	-0.0391	
890.40000	-0.0389	
890.60000	-0.0388	
890.80000	-0.0386	
891.00000	-0.0385	
891.20000	-0.0381	
891.40000	-0.0381	
891.60000	-0.0380	
891.80000	-0.0378	
892.00000	-0.0375	
892.20000	-0.0378	
892.40000	-0.0372	
892.60000	-0.0372	
892.80000	-0.0372	
893.00000	-0.0374	
893.20000	-0.0372	
893.40000	-0.0372	
893.60000	-0.0372	
893.80000	-0.0368	
894.00000	-0.0366	
894.20000	-0.0368	
894.40000	-0.0363	
894.60000	-0.0366	
894.80000	-0.0363	
895.00000	-0.0362	
895.20000	-0.0360	
895.40000	-0.0359	
895.60000	-0.0357	
895.80000	-0.0359	
896.00000	-0.0360	
896.20000	-0.0363	
896.40000	-0.0360	
896.60000	-0.0363	
896.80000	-0.0365	
897.00000	-0.0366	
897.20000	-0.0365	
897.40000	-0.0363	
897.60000	-0.0362	
897.80000	-0.0363	
898.00000	-0.0366	
898.20000	-0.0365	
898.40000	-0.0368	
898.60000	-0.0369	
898.80000	-0.0372	
899.00000	-0.0374	
899.20000	-0.0375	
899.40000	-0.0375	
899.60000	-0.0378	
899.80000	-0.0383	
900.00000	-0.0385	
900.20000	-0.0380	
900.40000	-0.0385	
900.60000	-0.0386	
900.80000	-0.0386	
901.00000	-0.0388	
901.20000	-0.0389	
901.40000	-0.0389	
901.60000	-0.0395	
901.80000	-0.0398	
902.00000	-0.0400	
902.20000	-0.0404	
902.40000	-0.0400	
902.60000	-0.0401	
902.80000	-0.0401	
903.00000	-0.0401	
903.20000	-0.0401	
903.40000	-0.0400	
903.60000	-0.0400	
903.80000	-0.0401	
904.00000	-0.0400	
904.20000	-0.0398	
904.40000	-0.0400	
904.60000	-0.0397	
904.80000	-0.0397	
905.00000	-0.0394	
905.20000	-0.0397	
905.40000	-0.0395	
905.60000	-0.0394	
905.80000	-0.0391	
906.00000	-0.0394	
906.20000	-0.0391	
906.40000	-0.0388	
906.60000	-0.0388	
906.80000	-0.0389	
907.00000	-0.0386	
907.20000	-0.0383	
907.40000	-0.0383	
907.60000	-0.0380	
907.80000	-0.0377	
908.00000	-0.0375	
908.20000	-0.0375	
908.40000	-0.0375	
908.60000	-0.0375	
908.80000	-0.0375	
909.00000	-0.0369	
909.20000	-0.0365	
909.40000	-0.0366	
909.60000	-0.0368	
909.80000	-0.0366	
910.00000	-0.0365	
910.20000	-0.0365	
910.40000	-0.0365	
910.60000	-0.0362	
910.80000	-0.0360	
911.00000	-0.0357	
911.20000	-0.0360	
911.40000	-0.0357	
911.60000	-0.0359	
911.80000	-0.0357	
912.00000	-0.0356	
912.20000	-0.0352	
912.40000	-0.0354	
912.60000	-0.0356	
912.80000	-0.0359	
913.00000	-0.0359	
913.20000	-0.0354	
913.40000	-0.0357	
913.60000	-0.0357	
913.80000	-0.0360	
914.00000	-0.0357	
914.20000	-0.0359	
914.40000	-0.0359	
914.60000	-0.0359	
914.80000	-0.0365	
915.00000	-0.0365	
915.20000	-0.0363	
915.40000	-0.0366	
915.60000	-0.0368	
915.80000	-0.0369	
916.00000	-0.0374	
916.20000	-0.0377	
916.40000	-0.0378	
916.60000	-0.0380	
916.80000	-0.0381	
917.00000	-0.0383	
917.20000	-0.0380	
917.40000	-0.0383	
917.60000	-0.0389	
917.80000	-0.0386	
918.00000	-0.0386	
918.20000	-0.0388	
918.40000	-0.0389	
918.60000	-0.0389	
918.80000	-0.0391	
919.00000	-0.0397	
919.20000	-0.0397	
919.40000	-0.0397	
919.60000	-0.0398	
919.80000	-0.0400	
920.00000	-0.0398	
920.20000	-0.0400	
920.40000	-0.0397	
920.60000	-0.0397	
920.80000	-0.0395	
921.00000	-0.0394	
921.20000	-0.0394	
921.40000	-0.0394	
921.60000	-0.0391	
921.80000	-0.0391	
922.00000	-0.0389	
922.20000	-0.0391	
922.40000	-0.0388	
922.60000	-0.0389	
922.80000	-0.0388	
923.00000	-0.0386	
923.20000	-0.0386	
923.40000	-0.0386	
923.60000	-0.0386	
923.80000	-0.0381	
924.00000	-0.0381	
924.20000	-0.0381	
924.40000	-0.0378	
924.60000	-0.0375	
924.80000	-0.0377	
925.00000	-0.0375	
925.20000	-0.0372	
925.40000	-0.0368	
925.60000	-0.0369	
925.80000	-0.0366	
926.00000	-0.0366	
926.20000	-0.0363	
926.40000	-0.0363	
926.60000	-0.0368	
926.80000	-0.0362	
927.00000	-0.0363	
927.20000	-0.0362	
927.40000	-0.0360	
927.60000	-0.0359	
927.80000	-0.0359	
928.00000	-0.0359	
928.20000	-0.0359	
928.40000	-0.0356	
928.60000	-0.0354	
928.80000	-0.0354	
929.00000	-0.0354	
929.20000	-0.0356	
929.40000	-0.0359	
929.60000	-0.0360	
929.80000	-0.0359	
930.00000	-0.0362	
930.20000	-0.0360	
930.40000	-0.0362	
930.60000	-0.0362	
930.80000	-0.0362	
931.00000	-0.0360	
931.20000	-0.0363	
931.40000	-0.0365	
931.60000	-0.0365	
931.80000	-0.0366	
932.00000	-0.0369	
932.20000	-0.0372	
932.40000	-0.0369	
932.60000	-0.0375	
932.80000	-0.0378	
933.00000	-0.0381	
933.20000	-0.0381	
933.40000	-0.0381	
933.60000	-0.0386	
933.80000	-0.0386	
934.00000	-0.0389	
934.20000	-0.0389	
934.40000	-0.0391	
934.60000	-0.0394	
934.80000	-0.0391	
935.00000	-0.0394	
935.20000	-0.0395	
935.40000	-0.0397	
935.60000	-0.0398	
935.80000	-0.0398	
936.00000	-0.0401	
936.20000	-0.0401	
936.40000	-0.0401	
936.60000	-0.0400	
936.80000	-0.0398	
937.00000	-0.0400	
937.20000	-0.0398	
937.40000	-0.0400	
937.60000	-0.0397	
937.80000	-0.0397	
938.00000	-0.0395	
938.20000	-0.0391	
938.40000	-0.0389	
938.60000	-0.0394	
938.80000	-0.0391	
939.00000	-0.0394	
939.20000	-0.0389	
939.40000	-0.0391	
939.60000	-0.0389	
939.80000	-0.0388	
940.00000	-0.0386	
940.20000	-0.0388	
940.40000	-0.0386	
940.60000	-0.0380	
940.80000	-0.0378	
941.00000	-0.0380	
941.20000	-0.0380	
941.40000	-0.0375	
941.60000	-0.0378	
941.80000	-0.0374	
942.00000	-0.0368	
942.20000	-0.0372	
942.40000	-0.0372	
942.60000	-0.0365	
942.80000	-0.0363	
943.00000	-0.0362	
943.20000	-0.0363	
943.40000	-0.0360	
943.60000	-0.0362	
943.80000	-0.0359	
944.00000	-0.0359	
944.20000	-0.0356	
944.40000	-0.0357	
944.60000	-0.0356	
944.80000	-0.0354	
945.00000	-0.0357	
945.20000	-0.0354	
945.40000	-0.0354	
945.60000	-0.0352	
945.80000	-0.0354	
946.00000	-0.0354	
946.20000	-0.0356	
946.40000	-0.0360	
946.60000	-0.0357	
946.80000	-0.0359	
947.00000	-0.0359	
947.20000	-0.0359	
947.40000	-0.0360	
947.60000	-0.0360	
947.80000	-0.0362	
948.00000	-0.0360	
948.20000	-0.0365	
948.40000	-0.0366	
948.60000	-0.0366	
948.80000	-0.0368	
949.00000	-0.0368	
949.20000	-0.0374	
949.40000	-0.0375	
949.60000	-0.0380	
949.80000	-0.0378	
950.00000	-0.0381	
950.20000	-0.0381	
950.40000	-0.0380	
950.60000	-0.0383	
950.80000	-0.0386	
951.00000	-0.0389	
951.20000	-0.0388	
951.40000	-0.0389	
951.60000	-0.0391	
951.80000	-0.0391	
952.00000	-0.0395	
952.20000	-0.0398	
952.40000	-0.0397	
952.60000	-0.0398	
952.80000	-0.0401	
953.00000	-0.0400	
953.20000	-0.0397	
953.40000	-0.0400	
953.60000	-0.0397	
953.80000	-0.0397	
954.00000	-0.0395	
954.20000	-0.0397	
954.40000	-0.0394	
954.60000	-0.0391	
954.80000	-0.0395	
955.00000	-0.0395	
955.20000	-0.0395	
955.40000	-0.0397	
955.60000	-0.0394	
955.80000	-0.0394	
956.00000	-0.0395	
956.20000	-0.0389	
956.40000	-0.0391	
956.60000	-0.0388	
956.80000	-0.0388	
957.00000	-0.0386	
957.20000	-0.0381	
957.40000	-0.0381	
957.60000	-0.0378	
957.80000	-0.0375	
958.00000	-0.0374	
958.20000	-0.0369	
958.40000	-0.0368	
958.60000	-0.0368	
958.80000	-0.0368	
959.00000	-0.0362	
959.20000	-0.0362	
959.40000	-0.0360	
959.60000	-0.0363	
959.80000	-0.0357	
960.00000	-0.0359	
960.20000	-0.0359	
960.40000	-0.0357	
960.60000	-0.0352	
960.80000	-0.0354	
961.00000	-0.0348	
961.20000	-0.0349	
961.40000	-0.0348	
961.60000	-0.0346	
961.80000	-0.0345	
962.00000	-0.0346	
962.20000	-0.0346	
962.40000	-0.0346	
962.60000	-0.0346	
962.80000	-0.0352	
963.00000	-0.0352	
963.20000	-0.0352	
963.40000	-0.0352	
963.60000	-0.0352	
963.80000	-0.0352	
964.00000	-0.0354	
964.20000	-0.0352	
964.40000	-0.0357	
964.60000	-0.0359	
964.80000	-0.0360	
965.00000	-0.0362	
965.20000	-0.0363	
965.40000	-0.0363	
965.60000	-0.0368	
965.80000	-0.0368	
966.00000	-0.0369	
966.20000	-0.0375	
966.40000	-0.0375	
966.60000	-0.0377	
966.80000	-0.0378	
967.00000	-0.0381	
967.20000	-0.0380	
967.40000	-0.0378	
967.60000	-0.0383	
967.80000	-0.0381	
968.00000	-0.0380	
968.20000	-0.0383	
968.40000	-0.0386	
968.60000	-0.0386	
968.80000	-0.0385	
969.00000	-0.0386	
969.20000	-0.0394	
969.40000	-0.0391	
969.60000	-0.0391	
969.80000	-0.0391	
970.00000	-0.0395	
970.20000	-0.0394	
970.40000	-0.0394	
970.60000	-0.0388	
970.80000	-0.0391	
971.00000	-0.0389	
971.20000	-0.0386	
971.40000	-0.0386	
971.60000	-0.0383	
971.80000	-0.0381	
972.00000	-0.0385	
972.20000	-0.0383	
972.40000	-0.0385	
972.60000	-0.0383	
972.80000	-0.0381	
973.00000	-0.0380	
973.20000	-0.0378	
973.40000	-0.0377	
973.60000	-0.0378	
973.80000	-0.0375	
974.00000	-0.0377	
974.20000	-0.0375	
974.40000	-0.0372	
974.60000	-0.0372	
974.80000	-0.0369	
975.00000	-0.0366	
975.20000	-0.0363	
975.40000	-0.0365	
975.60000	-0.0363	
975.80000	-0.0362	
976.00000	-0.0359	
976.20000	-0.0357	
976.40000	-0.0359	
976.60000	-0.0357	
976.80000	-0.0360	
977.00000	-0.0359	
977.20000	-0.0359	
977.40000	-0.0356	
977.60000	-0.0359	
977.80000	-0.0357	
978.00000	-0.0354	
978.20000	-0.0354	
978.40000	-0.0356	
978.60000	-0.0349	
978.80000	-0.0346	
979.00000	-0.0346	
979.20000	-0.0349	
979.40000	-0.0352	
979.60000	-0.0352	
979.80000	-0.0354	
980.00000	-0.0357	
980.20000	-0.0352	
980.40000	-0.0354	
980.60000	-0.0356	
980.80000	-0.0356	
981.00000	-0.0356	
981.20000	-0.0356	
981.40000	-0.0357	
981.60000	-0.0360	
981.80000	-0.0360	
982.00000	-0.0363	
982.20000	-0.0365	
982.40000	-0.0369	
982.60000	-0.0369	
982.80000	-0.0374	
983.00000	-0.0378	
983.20000	-0.0380	
983.40000	-0.0375	
983.60000	-0.0381	
983.80000	-0.0381	
984.00000	-0.0383	
984.20000	-0.0386	
984.40000	-0.0388	
984.60000	-0.0386	
984.80000	-0.0389	
985.00000	-0.0389	
985.20000	-0.0394	
985.40000	-0.0394	
985.60000	-0.0395	
985.80000	-0.0395	
986.00000	-0.0397	
986.20000	-0.0397	
986.40000	-0.0397	
986.60000	-0.0395	
986.80000	-0.0395	
987.00000	-0.0398	
987.20000	-0.0394	
987.40000	-0.0395	
987.60000	-0.0394	
987.80000	-0.0391	
988.00000	-0.0389	
988.20000	-0.0388	
988.40000	-0.0388	
988.60000	-0.0388	
988.80000	-0.0385	
989.00000	-0.0385	
989.20000	-0.0383	
989.40000	-0.0383	
989.60000	-0.0378	
989.80000	-0.0380	
990.00000	-0.0378	
990.20000	-0.0377	
990.40000	-0.0375	
990.60000	-0.0374	
990.80000	-0.0374	
991.00000	-0.0369	
991.20000	-0.0365	
991.40000	-0.0365	
991.60000	-0.0365	
991.80000	-0.0360	
992.00000	-0.0363	
992.20000	-0.0365	
992.40000	-0.0360	
992.60000	-0.0359	
992.80000	-0.0357	
993.00000	-0.0357	
993.20000	-0.0356	
993.40000	-0.0356	
993.60000	-0.0356	
993.80000	-0.0352	
994.00000	-0.0354	
994.20000	-0.0352	
994.40000	-0.0349	
994.60000	-0.0349	
994.80000	-0.0348	
995.00000	-0.0348	
995.20000	-0.0348	
995.40000	-0.0349	
995.60000	-0.0345	
995.80000	-0.0349	
996.00000	-0.0352	
996.20000	-0.0357	
996.40000	-0.0354	
996.60000	-0.0352	
996.80000	-0.0352	
997.00000	-0.0357	
997.20000	-0.0356	
997.40000	-0.0359	
997.60000	-0.0359	
997.80000	-0.0360	
998.00000	-0.0360	
998.20000	-0.0363	
998.40000	-0.0366	
998.60000	-0.0366	
998.80000	-0.0369	
999.00000	-0.0369	
999.20000	-0.0369	
999.40000	-0.0374	
999.60000	-0.0377	
999.80000	-0.0383	
1000.00000	-0.0383	
1000.20000	-0.0386	
1000.40000	-0.0385	
1000.60000	-0.0385	
1000.80000	-0.0389	
1001.00000	-0.0388	
1001.20000	-0.0389	
1001.40000	-0.0394	
1001.60000	-0.0395	
1001.80000	-0.0395	
1002.00000	-0.0395	
1002.20000	-0.0401	
1002.40000	-0.0401	
1002.60000	-0.0404	
1002.80000	-0.0406	
1003.00000	-0.0404	
1003.20000	-0.0406	
1003.40000	-0.0404	
1003.60000	-0.0406	
1003.80000	-0.0404	
1004.00000	-0.0404	
1004.20000	-0.0403	
1004.40000	-0.0404	
1004.60000	-0.0400	
1004.80000	-0.0398	
1005.00000	-0.0398	
1005.20000	-0.0400	
1005.40000	-0.0397	
1005.60000	-0.0398	
1005.80000	-0.0395	
1006.00000	-0.0397	
1006.20000	-0.0395	
1006.40000	-0.0391	
1006.60000	-0.0391	
1006.80000	-0.0389	
1007.00000	-0.0386	
1007.20000	-0.0385	
1007.40000	-0.0383	
1007.60000	-0.0383	
1007.80000	-0.0381	
1008.00000	-0.0378	
1008.20000	-0.0377	
1008.40000	-0.0378	
1008.60000	-0.0375	
1008.80000	-0.0374	
1009.00000	-0.0372	
1009.20000	-0.0372	
1009.40000	-0.0368	
1009.60000	-0.0366	
1009.80000	-0.0366	
1010.00000	-0.0366	
1010.20000	-0.0363	
1010.40000	-0.0363	
1010.60000	-0.0363	
1010.80000	-0.0362	
1011.00000	-0.0362	
1011.20000	-0.0362	
1011.40000	-0.0360	
1011.60000	-0.0357	
1011.80000	-0.0359	
1012.00000	-0.0357	
1012.20000	-0.0356	
1012.40000	-0.0356	
1012.60000	-0.0359	
1012.80000	-0.0362	
1013.00000	-0.0360	
1013.20000	-0.0357	
1013.40000	-0.0360	
1013.60000	-0.0360	
1013.80000	-0.0360	
1014.00000	-0.0360	
1014.20000	-0.0359	
1014.40000	-0.0360	
1014.60000	-0.0363	
1014.80000	-0.0363	
1015.00000	-0.0366	
1015.20000	-0.0369	
1015.40000	-0.0366	
1015.60000	-0.0374	
1015.80000	-0.0374	
1016.00000	-0.0378	
1016.20000	-0.0381	
1016.40000	-0.0386	
1016.60000	-0.0385	
1016.80000	-0.0386	
1017.00000	-0.0386	
1017.20000	-0.0388	
1017.40000	-0.0389	
1017.60000	-0.0391	
1017.80000	-0.0394	
1018.00000	-0.0395	
1018.20000	-0.0395	
1018.40000	-0.0400	
1018.60000	-0.0398	
1018.80000	-0.0403	
1019.00000	-0.0407	
1019.20000	-0.0407	
1019.40000	-0.0409	
1019.60000	-0.0407	
1019.80000	-0.0407	
1020.00000	-0.0406	
1020.20000	-0.0407	
1020.40000	-0.0406	
1020.60000	-0.0404	
1020.80000	-0.0404	
1021.00000	-0.0406	
1021.20000	-0.0401	
1021.40000	-0.0401	
1021.60000	-0.0401	
1021.80000	-0.0400	
1022.00000	-0.0398	
1022.20000	-0.0394	
1022.40000	-0.0394	
1022.60000	-0.0395	
1022.80000	-0.0394	
1023.00000	-0.0394	
1023.20000	-0.0395	
1023.40000	-0.0394	
1023.60000	-0.0391	
1023.80000	-0.0388	
1024.00000	-0.0386	
1024.20000	-0.0385	
1024.40000	-0.0383	
1024.60000	-0.0380	
1024.80000	-0.0374	
1025.00000	-0.0374	
1025.20000	-0.0375	
1025.40000	-0.0372	
1025.60000	-0.0372	
1025.80000	-0.0369	
1026.00000	-0.0366	
1026.20000	-0.0366	
1026.40000	-0.0366	
1026.60000	-0.0366	
1026.80000	-0.0368	
1027.00000	-0.0365	
1027.20000	-0.0363	
1027.40000	-0.0363	
1027.60000	-0.0360	
1027.80000	-0.0359	
1028.00000	-0.0360	
1028.20000	-0.0360	
1028.40000	-0.0359	
1028.60000	-0.0357	
1028.80000	-0.0359	
1029.00000	-0.0357	
1029.20000	-0.0356	
1029.40000	-0.0362	
1029.60000	-0.0363	
1029.80000	-0.0359	
1030.00000	-0.0359	
1030.20000	-0.0357	
1030.40000	-0.0362	
1030.60000	-0.0363	
1030.80000	-0.0362	
1031.00000	-0.0362	
1031.20000	-0.0363	
1031.40000	-0.0365	
1031.60000	-0.0369	
1031.80000	-0.0369	
1032.00000	-0.0378	
1032.20000	-0.0374	
1032.40000	-0.0374	
1032.60000	-0.0380	
1032.80000	-0.0383	
1033.00000	-0.0388	
1033.20000	-0.0389	
1033.40000	-0.0395	
1033.60000	-0.0394	
1033.80000	-0.0394	
1034.00000	-0.0398	
1034.20000	-0.0400	
1034.40000	-0.0398	
1034.60000	-0.0395	
1034.80000	-0.0398	
1035.00000	-0.0400	
1035.20000	-0.0403	
1035.40000	-0.0401	
1035.60000	-0.0407	
1035.80000	-0.0404	
1036.00000	-0.0403	
1036.20000	-0.0407	
1036.40000	-0.0409	
1036.60000	-0.0407	
1036.80000	-0.0409	
1037.00000	-0.0409	
1037.20000	-0.0406	
1037.40000	-0.0407	
1037.60000	-0.0404	
1037.80000	-0.0403	
1038.00000	-0.0400	
1038.20000	-0.0401	
1038.40000	-0.0400	
1038.60000	-0.0398	
1038.80000	-0.0398	
1039.00000	-0.0395	
1039.20000	-0.0395	
1039.40000	-0.0394	
1039.60000	-0.0389	
1039.80000	-0.0388	
1040.00000	-0.0391	
1040.20000	-0.0388	
1040.40000	-0.0383	
1040.60000	-0.0380	
1040.80000	-0.0380	
1041.00000	-0.0380	
1041.20000	-0.0381	
1041.40000	-0.0377	
1041.60000	-0.0375	
1041.80000	-0.0368	
1042.00000	-0.0372	
1042.20000	-0.0368	
1042.40000	-0.0366	
1042.60000	-0.0362	
1042.80000	-0.0363	
1043.00000	-0.0360	
1043.20000	-0.0360	
1043.40000	-0.0356	
1043.60000	-0.0356	
1043.80000	-0.0356	
1044.00000	-0.0354	
1044.20000	-0.0348	
1044.40000	-0.0348	
1044.60000	-0.0348	
1044.80000	-0.0345	
1045.00000	-0.0342	
1045.20000	-0.0342	
1045.40000	-0.0340	
1045.60000	-0.0334	
1045.80000	-0.0337	
1046.00000	-0.0337	
1046.20000	-0.0337	
1046.40000	-0.0339	
1046.60000	-0.0337	
1046.80000	-0.0334	
1047.00000	-0.0333	
1047.20000	-0.0331	
1047.40000	-0.0331	
1047.60000	-0.0323	
1047.80000	-0.0320	
1048.00000	-0.0319	
1048.20000	-0.0314	
1048.40000	-0.0311	
1048.60000	-0.0310	
1048.80000	-0.0302	
1049.00000	-0.0301	
1049.20000	-0.0299	
1049.40000	-0.0294	
1049.60000	-0.0293	
1049.80000	-0.0288	
1050.00000	-0.0281	
1050.20000	-0.0276	
1050.40000	-0.0273	
1050.60000	-0.0264	
1050.80000	-0.0259	
1051.00000	-0.0253	
1051.20000	-0.0252	
1051.40000	-0.0249	
1051.60000	-0.0243	
1051.80000	-0.0238	
1052.00000	-0.0237	
1052.20000	-0.0235	
1052.40000	-0.0232	
1052.60000	-0.0226	
1052.80000	-0.0220	
1053.00000	-0.0211	
1053.20000	-0.0203	
1053.40000	-0.0195	
1053.60000	-0.0185	
1053.80000	-0.0175	
1054.00000	-0.0163	
1054.20000	-0.0151	
1054.40000	-0.0136	
1054.60000	-0.0119	
1054.80000	-0.0104	
1055.00000	-0.0084	
1055.20000	-0.0063	
1055.40000	-0.0040	
1055.60000	-0.0018	
1055.80000	 0.0005	
1056.00000	 0.0024	
1056.20000	 0.0052	
1056.40000	 0.0081	
1056.60000	 0.0105	
1056.80000	 0.0137	
1057.00000	 0.0165	
1057.20000	 0.0203	
1057.40000	 0.0241	
1057.60000	 0.0288	
1057.80000	 0.0340	
1058.00000	 0.0404	
1058.20000	 0.0476	
1058.40000	 0.0557	
1058.60000	 0.0644	
1058.80000	 0.0735	
1059.00000	 0.0835	
1059.20000	 0.0938	
1059.40000	 0.1050	
1059.60000	 0.1160	
1059.80000	 0.1270	
1060.00000	 0.1381	
1060.20000	 0.1489	
1060.40000	 0.1591	
1060.60000	 0.1691	
1060.80000	 0.1781	
1061.00000	 0.1865	
1061.20000	 0.1939	
1061.40000	 0.2005	
1061.60000	 0.2060	
1061.80000	 0.2106	
1062.00000	 0.2141	
1062.20000	 0.2164	
1062.40000	 0.2176	
1062.60000	 0.2176	
1062.80000	 0.2167	
1063.00000	 0.2148	
1063.20000	 0.2121	
1063.40000	 0.2086	
1063.60000	 0.2043	
1063.80000	 0.1997	
1064.00000	 0.1947	
1064.20000	 0.1889	
1064.40000	 0.1831	
1064.60000	 0.1770	
1064.80000	 0.1707	
1065.00000	 0.1637	
1065.20000	 0.1569	
1065.40000	 0.1505	
1065.60000	 0.1434	
1065.80000	 0.1369	
1066.00000	 0.1306	
1066.20000	 0.1237	
1066.40000	 0.1178	
1066.60000	 0.1120	
1066.80000	 0.1065	
1067.00000	 0.1013	
1067.20000	 0.0961	
1067.40000	 0.0912	
1067.60000	 0.0868	
1067.80000	 0.0826	
1068.00000	 0.0784	
1068.20000	 0.0748	
1068.40000	 0.0717	
1068.60000	 0.0685	
1068.80000	 0.0658	
1069.00000	 0.0638	
1069.20000	 0.0621	
1069.40000	 0.0612	
1069.60000	 0.0600	
1069.80000	 0.0595	
1070.00000	 0.0594	
1070.20000	 0.0595	
1070.40000	 0.0595	
1070.60000	 0.0600	
1070.80000	 0.0609	
1071.00000	 0.0616	
1071.20000	 0.0633	
1071.40000	 0.0644	
1071.60000	 0.0662	
1071.80000	 0.0679	
1072.00000	 0.0696	
1072.20000	 0.0716	
1072.40000	 0.0734	
1072.60000	 0.0748	
1072.80000	 0.0766	
1073.00000	 0.0783	
1073.20000	 0.0800	
1073.40000	 0.0813	
1073.60000	 0.0829	
1073.80000	 0.0842	
1074.00000	 0.0848	
1074.20000	 0.0859	
1074.40000	 0.0867	
1074.60000	 0.0870	
1074.80000	 0.0879	
1075.00000	 0.0882	
1075.20000	 0.0885	
1075.40000	 0.0887	
1075.60000	 0.0887	
1075.80000	 0.0893	
1076.00000	 0.0900	
1076.20000	 0.0902	
1076.40000	 0.0908	
1076.60000	 0.0912	
1076.80000	 0.0914	
1077.00000	 0.0923	
1077.20000	 0.0926	
1077.40000	 0.0928	
1077.60000	 0.0932	
1077.80000	 0.0935	
1078.00000	 0.0937	
1078.20000	 0.0937	
1078.40000	 0.0938	
1078.60000	 0.0937	
1078.80000	 0.0932	
1079.00000	 0.0929	
1079.20000	 0.0922	
1079.40000	 0.0911	
1079.60000	 0.0902	
1079.80000	 0.0897	
1080.00000	 0.0885	
1080.20000	 0.0873	
1080.40000	 0.0861	
1080.60000	 0.0839	
1080.80000	 0.0818	
1081.00000	 0.0795	
1081.20000	 0.0761	
1081.40000	 0.0725	
1081.60000	 0.0685	
1081.80000	 0.0642	
1082.00000	 0.0589	
1082.20000	 0.0537	
1082.40000	 0.0479	
1082.60000	 0.0417	
1082.80000	 0.0356	
1083.00000	 0.0291	
1083.20000	 0.0224	
1083.40000	 0.0160	
1083.60000	 0.0098	
1083.80000	 0.0029	
1084.00000	-0.0031	
1084.20000	-0.0098	
1084.40000	-0.0154	
1084.60000	-0.0214	
1084.80000	-0.0272	
1085.00000	-0.0325	
1085.20000	-0.0380	
1085.40000	-0.0432	
1085.60000	-0.0479	
1085.80000	-0.0525	
1086.00000	-0.0568	
1086.20000	-0.0610	
1086.40000	-0.0650	
1086.60000	-0.0687	
1086.80000	-0.0720	
1087.00000	-0.0752	
1087.20000	-0.0784	
1087.40000	-0.0810	
1087.60000	-0.0835	
1087.80000	-0.0861	
1088.00000	-0.0876	
1088.20000	-0.0890	
1088.40000	-0.0905	
1088.60000	-0.0919	
1088.80000	-0.0926	
1089.00000	-0.0932	
1089.20000	-0.0934	
1089.40000	-0.0932	
1089.60000	-0.0932	
1089.80000	-0.0929	
1090.00000	-0.0928	
1090.20000	-0.0917	
1090.40000	-0.0909	
1090.60000	-0.0905	
1090.80000	-0.0894	
1091.00000	-0.0891	
1091.20000	-0.0887	
1091.40000	-0.0877	
1091.60000	-0.0874	
1091.80000	-0.0870	
1092.00000	-0.0868	
1092.20000	-0.0864	
1092.40000	-0.0864	
1092.60000	-0.0861	
1092.80000	-0.0856	
1093.00000	-0.0854	
1093.20000	-0.0856	
1093.40000	-0.0856	
1093.60000	-0.0856	
1093.80000	-0.0858	
1094.00000	-0.0861	
1094.20000	-0.0865	
1094.40000	-0.0867	
1094.60000	-0.0874	
1094.80000	-0.0885	
1095.00000	-0.0894	
1095.20000	-0.0900	
1095.40000	-0.0911	
1095.60000	-0.0925	
1095.80000	-0.0937	
1096.00000	-0.0954	
1096.20000	-0.0967	
1096.40000	-0.0980	
1096.60000	-0.0992	
1096.80000	-0.1001	
1097.00000	-0.1018	
1097.20000	-0.1030	
1097.40000	-0.1039	
1097.60000	-0.1051	
1097.80000	-0.1062	
1098.00000	-0.1073	
1098.20000	-0.1083	
1098.40000	-0.1089	
1098.60000	-0.1100	
1098.80000	-0.1108	
1099.00000	-0.1117	
1099.20000	-0.1122	
1099.40000	-0.1125	
1099.60000	-0.1137	
1099.80000	-0.1141	
1100.00000	-0.1146	
1100.20000	-0.1144	
1100.40000	-0.1147	
1100.60000	-0.1152	
1100.80000	-0.1154	
1101.00000	-0.1158	
1101.20000	-0.1161	
1101.40000	-0.1158	
1101.60000	-0.1166	
1101.80000	-0.1167	
1102.00000	-0.1170	
1102.20000	-0.1175	
1102.40000	-0.1181	
1102.60000	-0.1184	
1102.80000	-0.1189	
1103.00000	-0.1192	
1103.20000	-0.1193	
1103.40000	-0.1199	
1103.60000	-0.1199	
1103.80000	-0.1201	
1104.00000	-0.1201	
1104.20000	-0.1196	
1104.40000	-0.1190	
1104.60000	-0.1189	
1104.80000	-0.1187	
1105.00000	-0.1184	
1105.20000	-0.1183	
1105.40000	-0.1175	
1105.60000	-0.1172	
1105.80000	-0.1170	
1106.00000	-0.1166	
1106.20000	-0.1164	
1106.40000	-0.1164	
1106.60000	-0.1161	
1106.80000	-0.1155	
1107.00000	-0.1154	
1107.20000	-0.1152	
1107.40000	-0.1151	
1107.60000	-0.1155	
1107.80000	-0.1152	
1108.00000	-0.1151	
1108.20000	-0.1152	
1108.40000	-0.1151	
1108.60000	-0.1152	
1108.80000	-0.1154	
1109.00000	-0.1154	
1109.20000	-0.1152	
1109.40000	-0.1155	
1109.60000	-0.1158	
1109.80000	-0.1160	
1110.00000	-0.1161	
1110.20000	-0.1160	
1110.40000	-0.1163	
1110.60000	-0.1160	
1110.80000	-0.1163	
1111.00000	-0.1155	
1111.20000	-0.1154	
1111.40000	-0.1155	
1111.60000	-0.1152	
1111.80000	-0.1151	
1112.00000	-0.1143	
1112.20000	-0.1141	
1112.40000	-0.1132	
1112.60000	-0.1134	
1112.80000	-0.1134	
1113.00000	-0.1132	
1113.20000	-0.1129	
1113.40000	-0.1125	
1113.60000	-0.1125	
1113.80000	-0.1118	
1114.00000	-0.1117	
1114.20000	-0.1111	
1114.40000	-0.1106	
1114.60000	-0.1103	
1114.80000	-0.1103	
1115.00000	-0.1099	
1115.20000	-0.1099	
1115.40000	-0.1096	
1115.60000	-0.1091	
1115.80000	-0.1089	
1116.00000	-0.1094	
1116.20000	-0.1096	
1116.40000	-0.1097	
1116.60000	-0.1099	
1116.80000	-0.1099	
1117.00000	-0.1099	
1117.20000	-0.1097	
1117.40000	-0.1099	
1117.60000	-0.1102	
1117.80000	-0.1100	
1118.00000	-0.1100	
1118.20000	-0.1097	
1118.40000	-0.1097	
1118.60000	-0.1096	
1118.80000	-0.1100	
1119.00000	-0.1097	
1119.20000	-0.1091	
1119.40000	-0.1099	
1119.60000	-0.1097	
1119.80000	-0.1097	
1120.00000	-0.1097	
1120.20000	-0.1094	
1120.40000	-0.1096	
1120.60000	-0.1094	
1120.80000	-0.1094	
1121.00000	-0.1091	
1121.20000	-0.1088	
1121.40000	-0.1089	
1121.60000	-0.1088	
1121.80000	-0.1085	
1122.00000	-0.1085	
1122.20000	-0.1082	
1122.40000	-0.1079	
1122.60000	-0.1077	
1122.80000	-0.1074	
1123.00000	-0.1070	
1123.20000	-0.1067	
1123.40000	-0.1065	
1123.60000	-0.1062	
1123.80000	-0.1059	
1124.00000	-0.1056	
1124.20000	-0.1054	
1124.40000	-0.1054	
1124.60000	-0.1053	
1124.80000	-0.1051	
1125.00000	-0.1048	
1125.20000	-0.1053	
1125.40000	-0.1053	
1125.60000	-0.1053	
1125.80000	-0.1054	
1126.00000	-0.1054	
1126.20000	-0.1059	
1126.40000	-0.1057	
1126.60000	-0.1059	
1126.80000	-0.1062	
1127.00000	-0.1064	
1127.20000	-0.1064	
1127.40000	-0.1064	
1127.60000	-0.1062	
1127.80000	-0.1065	
1128.00000	-0.1068	
1128.20000	-0.1068	
1128.40000	-0.1068	
1128.60000	-0.1070	
1128.80000	-0.1073	
1129.00000	-0.1073	
1129.20000	-0.1077	
1129.40000	-0.1080	
1129.60000	-0.1082	
1129.80000	-0.1083	
1130.00000	-0.1083	
1130.20000	-0.1082	
1130.40000	-0.1086	
1130.60000	-0.1091	
1130.80000	-0.1089	
1131.00000	-0.1091	
1131.20000	-0.1094	
1131.40000	-0.1096	
1131.60000	-0.1097	
1131.80000	-0.1100	
1132.00000	-0.1100	
1132.20000	-0.1100	
1132.40000	-0.1102	
1132.60000	-0.1103	
1132.80000	-0.1102	
1133.00000	-0.1103	
1133.20000	-0.1103	
1133.40000	-0.1102	
1133.60000	-0.1103	
1133.80000	-0.1102	
1134.00000	-0.1099	
1134.20000	-0.1097	
1134.40000	-0.1094	
1134.60000	-0.1091	
1134.80000	-0.1091	
1135.00000	-0.1086	
1135.20000	-0.1085	
1135.40000	-0.1083	
1135.60000	-0.1079	
1135.80000	-0.1079	
1136.00000	-0.1077	
1136.20000	-0.1074	
1136.40000	-0.1074	
1136.60000	-0.1070	
1136.80000	-0.1067	
1137.00000	-0.1062	
1137.20000	-0.1059	
1137.40000	-0.1054	
1137.60000	-0.1051	
1137.80000	-0.1044	
1138.00000	-0.1039	
1138.20000	-0.1039	
1138.40000	-0.1041	
1138.60000	-0.1035	
1138.80000	-0.1031	
1139.00000	-0.1033	
1139.20000	-0.1025	
1139.40000	-0.1022	
1139.60000	-0.1019	
1139.80000	-0.1016	
1140.00000	-0.1012	
1140.20000	-0.1012	
1140.40000	-0.1003	
1140.60000	-0.0996	
1140.80000	-0.0996	
1141.00000	-0.0992	
1141.20000	-0.0987	
1141.40000	-0.0981	
1141.60000	-0.0978	
1141.80000	-0.0974	
1142.00000	-0.0964	
1142.20000	-0.0961	
1142.40000	-0.0958	
1142.60000	-0.0949	
1142.80000	-0.0948	
1143.00000	-0.0941	
1143.20000	-0.0934	
1143.40000	-0.0931	
1143.60000	-0.0931	
1143.80000	-0.0922	
1144.00000	-0.0917	
1144.20000	-0.0912	
1144.40000	-0.0906	
1144.60000	-0.0899	
1144.80000	-0.0894	
1145.00000	-0.0893	
1145.20000	-0.0885	
1145.40000	-0.0882	
1145.60000	-0.0874	
1145.80000	-0.0871	
1146.00000	-0.0868	
1146.20000	-0.0868	
1146.40000	-0.0865	
1146.60000	-0.0861	
1146.80000	-0.0854	
1147.00000	-0.0853	
1147.20000	-0.0848	
1147.40000	-0.0845	
1147.60000	-0.0845	
1147.80000	-0.0841	
1148.00000	-0.0835	
1148.20000	-0.0836	
1148.40000	-0.0833	
1148.60000	-0.0832	
1148.80000	-0.0830	
1149.00000	-0.0830	
1149.20000	-0.0826	
1149.40000	-0.0822	
1149.60000	-0.0824	
1149.80000	-0.0824	
1150.00000	-0.0819	
1150.20000	-0.0818	
1150.40000	-0.0815	
1150.60000	-0.0810	
1150.80000	-0.0809	
1151.00000	-0.0807	
1151.20000	-0.0806	
1151.40000	-0.0801	
1151.60000	-0.0800	
1151.80000	-0.0797	
1152.00000	-0.0798	
1152.20000	-0.0793	
1152.40000	-0.0790	
1152.60000	-0.0789	
1152.80000	-0.0789	
1153.00000	-0.0783	
1153.20000	-0.0777	
1153.40000	-0.0775	
1153.60000	-0.0769	
1153.80000	-0.0764	
1154.00000	-0.0761	
1154.20000	-0.0757	
1154.40000	-0.0749	
1154.60000	-0.0745	
1154.80000	-0.0739	
1155.00000	-0.0729	
1155.20000	-0.0731	
1155.40000	-0.0725	
1155.60000	-0.0719	
1155.80000	-0.0713	
1156.00000	-0.0708	
1156.20000	-0.0703	
1156.40000	-0.0697	
1156.60000	-0.0696	
1156.80000	-0.0688	
1157.00000	-0.0679	
1157.20000	-0.0676	
1157.40000	-0.0671	
1157.60000	-0.0664	
1157.80000	-0.0659	
1158.00000	-0.0655	
1158.20000	-0.0650	
1158.40000	-0.0641	
1158.60000	-0.0639	
1158.80000	-0.0636	
1159.00000	-0.0629	
1159.20000	-0.0623	
1159.40000	-0.0620	
1159.60000	-0.0613	
1159.80000	-0.0609	
1160.00000	-0.0606	
1160.20000	-0.0601	
1160.40000	-0.0595	
1160.60000	-0.0589	
1160.80000	-0.0586	
1161.00000	-0.0578	
1161.20000	-0.0577	
1161.40000	-0.0574	
1161.60000	-0.0568	
1161.80000	-0.0565	
1162.00000	-0.0560	
1162.20000	-0.0554	
1162.40000	-0.0549	
1162.60000	-0.0552	
1162.80000	-0.0552	
1163.00000	-0.0548	
1163.20000	-0.0543	
1163.40000	-0.0540	
1163.60000	-0.0539	
1163.80000	-0.0536	
1164.00000	-0.0533	
1164.20000	-0.0531	
1164.40000	-0.0526	
1164.60000	-0.0528	
1164.80000	-0.0526	
1165.00000	-0.0525	
1165.20000	-0.0523	
1165.40000	-0.0522	
1165.60000	-0.0517	
1165.80000	-0.0519	
1166.00000	-0.0514	
1166.20000	-0.0516	
1166.40000	-0.0519	
1166.60000	-0.0516	
1166.80000	-0.0516	
1167.00000	-0.0514	
1167.20000	-0.0514	
1167.40000	-0.0511	
1167.60000	-0.0511	
1167.80000	-0.0510	
1168.00000	-0.0507	
1168.20000	-0.0505	
1168.40000	-0.0504	
1168.60000	-0.0505	
1168.80000	-0.0500	
1169.00000	-0.0504	
1169.20000	-0.0496	
1169.40000	-0.0497	
1169.60000	-0.0496	
1169.80000	-0.0494	
1170.00000	-0.0490	
1170.20000	-0.0487	
1170.40000	-0.0485	
1170.60000	-0.0481	
1170.80000	-0.0473	
1171.00000	-0.0468	
1171.20000	-0.0464	
1171.40000	-0.0461	
1171.60000	-0.0458	
1171.80000	-0.0452	
1172.00000	-0.0449	
1172.20000	-0.0444	
1172.40000	-0.0441	
1172.60000	-0.0438	
1172.80000	-0.0432	
1173.00000	-0.0427	
1173.20000	-0.0424	
1173.40000	-0.0418	
1173.60000	-0.0415	
1173.80000	-0.0409	
1174.00000	-0.0406	
1174.20000	-0.0400	
1174.40000	-0.0397	
1174.60000	-0.0389	
1174.80000	-0.0389	
1175.00000	-0.0383	
1175.20000	-0.0380	
1175.40000	-0.0375	
1175.60000	-0.0369	
1175.80000	-0.0368	
1176.00000	-0.0362	
1176.20000	-0.0360	
1176.40000	-0.0356	
1176.60000	-0.0356	
1176.80000	-0.0352	
1177.00000	-0.0348	
1177.20000	-0.0348	
1177.40000	-0.0345	
1177.60000	-0.0340	
1177.80000	-0.0337	
1178.00000	-0.0336	
1178.20000	-0.0331	
1178.40000	-0.0328	
1178.60000	-0.0327	
1178.80000	-0.0323	
1179.00000	-0.0320	
1179.20000	-0.0316	
1179.40000	-0.0323	
1179.60000	-0.0325	
1179.80000	-0.0319	
1180.00000	-0.0316	
1180.20000	-0.0317	
1180.40000	-0.0313	
1180.60000	-0.0316	
1180.80000	-0.0316	
1181.00000	-0.0311	
1181.20000	-0.0307	
1181.40000	-0.0310	
1181.60000	-0.0305	
1181.80000	-0.0307	
1182.00000	-0.0304	
1182.20000	-0.0304	
1182.40000	-0.0302	
1182.60000	-0.0301	
1182.80000	-0.0302	
1183.00000	-0.0304	
1183.20000	-0.0301	
1183.40000	-0.0301	
1183.60000	-0.0298	
1183.80000	-0.0298	
1184.00000	-0.0298	
1184.20000	-0.0299	
1184.40000	-0.0298	
1184.60000	-0.0296	
1184.80000	-0.0301	
1185.00000	-0.0299	
1185.20000	-0.0301	
1185.40000	-0.0301	
1185.60000	-0.0305	
1185.80000	-0.0307	
1186.00000	-0.0310	
1186.20000	-0.0313	
1186.40000	-0.0313	
1186.60000	-0.0311	
1186.80000	-0.0313	
1187.00000	-0.0311	
1187.20000	-0.0310	
1187.40000	-0.0313	
1187.60000	-0.0313	
1187.80000	-0.0313	
1188.00000	-0.0314	
1188.20000	-0.0311	
1188.40000	-0.0310	
1188.60000	-0.0314	
1188.80000	-0.0313	
1189.00000	-0.0313	
1189.20000	-0.0310	
1189.40000	-0.0311	
1189.60000	-0.0311	
1189.80000	-0.0310	
1190.00000	-0.0307	
1190.20000	-0.0310	
1190.40000	-0.0305	
1190.60000	-0.0301	
1190.80000	-0.0302	
1191.00000	-0.0299	
1191.20000	-0.0299	
1191.40000	-0.0296	
1191.60000	-0.0296	
1191.80000	-0.0293	
1192.00000	-0.0291	
1192.20000	-0.0290	
1192.40000	-0.0288	
1192.60000	-0.0285	
1192.80000	-0.0285	
1193.00000	-0.0281	
1193.20000	-0.0282	
1193.40000	-0.0281	
1193.60000	-0.0278	
1193.80000	-0.0278	
1194.00000	-0.0276	
1194.20000	-0.0276	
1194.40000	-0.0272	
1194.60000	-0.0272	
1194.80000	-0.0270	
1195.00000	-0.0267	
1195.20000	-0.0269	
1195.40000	-0.0269	
1195.60000	-0.0262	
1195.80000	-0.0267	
1196.00000	-0.0270	
1196.20000	-0.0270	
1196.40000	-0.0270	
1196.60000	-0.0267	
1196.80000	-0.0264	
1197.00000	-0.0262	
1197.20000	-0.0262	
1197.40000	-0.0262	
1197.60000	-0.0261	
1197.80000	-0.0261	
1198.00000	-0.0261	
1198.20000	-0.0262	
1198.40000	-0.0261	
1198.60000	-0.0261	
1198.80000	-0.0261	
1199.00000	-0.0261	
1199.20000	-0.0262	
1199.40000	-0.0267	
1199.60000	-0.0269	
1199.80000	-0.0273	
1200.00000	-0.0275	
1200.20000	-0.0278	
1200.40000	-0.0279	
1200.60000	-0.0279	
1200.80000	-0.0282	
1201.00000	-0.0285	
1201.20000	-0.0285	
1201.40000	-0.0288	
1201.60000	-0.0291	
1201.80000	-0.0293	
1202.00000	-0.0294	
1202.20000	-0.0296	
1202.40000	-0.0301	
1202.60000	-0.0302	
1202.80000	-0.0313	
1203.00000	-0.0311	
1203.20000	-0.0313	
1203.40000	-0.0314	
1203.60000	-0.0314	
1203.80000	-0.0316	
1204.00000	-0.0316	
1204.20000	-0.0311	
1204.40000	-0.0311	
1204.60000	-0.0314	
1204.80000	-0.0311	
1205.00000	-0.0314	
1205.20000	-0.0316	
1205.40000	-0.0314	
1205.60000	-0.0314	
1205.80000	-0.0316	
1206.00000	-0.0311	
1206.20000	-0.0313	
1206.40000	-0.0310	
1206.60000	-0.0307	
1206.80000	-0.0304	
1207.00000	-0.0299	
1207.20000	-0.0294	
1207.40000	-0.0285	
1207.60000	-0.0284	
1207.80000	-0.0276	
1208.00000	-0.0264	
1208.20000	-0.0258	
1208.40000	-0.0250	
1208.60000	-0.0243	
1208.80000	-0.0232	
1209.00000	-0.0224	
1209.20000	-0.0215	
1209.40000	-0.0204	
1209.60000	-0.0192	
1209.80000	-0.0188	
1210.00000	-0.0179	
1210.20000	-0.0168	
1210.40000	-0.0162	
1210.60000	-0.0150	
1210.80000	-0.0137	
1211.00000	-0.0124	
1211.20000	-0.0108	
1211.40000	-0.0093	
1211.60000	-0.0078	
1211.80000	-0.0060	
1212.00000	-0.0040	
1212.20000	-0.0020	
1212.40000	 0.0002	
1212.60000	 0.0020	
1212.80000	 0.0043	
1213.00000	 0.0066	
1213.20000	 0.0099	
1213.40000	 0.0134	
1213.60000	 0.0171	
1213.80000	 0.0212	
1214.00000	 0.0256	
1214.20000	 0.0304	
1214.40000	 0.0354	
1214.60000	 0.0404	
1214.80000	 0.0462	
1215.00000	 0.0511	
1215.20000	 0.0565	
1215.40000	 0.0623	
1215.60000	 0.0684	
1215.80000	 0.0746	
1216.00000	 0.0818	
1216.20000	 0.0883	
1216.40000	 0.0957	
1216.60000	 0.1031	
1216.80000	 0.1118	
1217.00000	 0.1198	
1217.20000	 0.1280	
1217.40000	 0.1363	
1217.60000	 0.1445	
1217.80000	 0.1524	
1218.00000	 0.1611	
1218.20000	 0.1688	
1218.40000	 0.1761	
1218.60000	 0.1839	
1218.80000	 0.1913	
1219.00000	 0.1985	
1219.20000	 0.2058	
1219.40000	 0.2126	
1219.60000	 0.2196	
1219.80000	 0.2263	
1220.00000	 0.2328	
1220.20000	 0.2390	
1220.40000	 0.2441	
1220.60000	 0.2486	
1220.80000	 0.2528	
1221.00000	 0.2565	
1221.20000	 0.2602	
1221.40000	 0.2629	
1221.60000	 0.2644	
1221.80000	 0.2657	
1222.00000	 0.2663	
1222.20000	 0.2654	
1222.40000	 0.2649	
1222.60000	 0.2629	
1222.80000	 0.2605	
1223.00000	 0.2570	
1223.20000	 0.2519	
1223.40000	 0.2441	
1223.60000	 0.2335	
1223.80000	 0.2202	
1224.00000	 0.2037	
1224.20000	 0.1839	
1224.40000	 0.1591	
1224.60000	 0.1297	
1224.80000	 0.0957	
1225.00000	 0.0565	
1225.20000	 0.0131	
1225.40000	-0.0354	
1225.60000	-0.0873	
1225.80000	-0.1427	
1226.00000	-0.1997	
1226.20000	-0.2586	
1226.40000	-0.3181	
1226.60000	-0.3778	
1226.80000	-0.4378	
1227.00000	-0.4977	
1227.20000	-0.5577	
1227.40000	-0.6189	
1227.60000	-0.6805	
1227.80000	-0.7425	
1228.00000	-0.8060	
1228.20000	-0.8707	
1228.40000	-0.9358	
1228.60000	-1.0016	
1228.80000	-1.0663	
1229.00000	-1.1298	
1229.20000	-1.1894	
1229.40000	-1.2454	
1229.60000	-1.2949	
1229.80000	-1.3368	
1230.00000	-1.3722	
1230.20000	-1.3997	
1230.40000	-1.4206	
1230.60000	-1.4343	
1230.80000	-1.4423	
1231.00000	-1.4433	
1231.20000	-1.4401	
1231.40000	-1.4320	
1231.60000	-1.4195	
1231.80000	-1.4040	
1232.00000	-1.3853	
1232.20000	-1.3641	
1232.40000	-1.3411	
1232.60000	-1.3159	
1232.80000	-1.2889	
1233.00000	-1.2599	
1233.20000	-1.2296	
1233.40000	-1.1977	
1233.60000	-1.1644	
1233.80000	-1.1305	
1234.00000	-1.0959	
1234.20000	-1.0611	
1234.40000	-1.0262	
1234.60000	-0.9915	
1234.80000	-0.9570	
1235.00000	-0.9236	
1235.20000	-0.8910	
1235.40000	-0.8595	
1235.60000	-0.8289	
1235.80000	-0.7996	
1236.00000	-0.7721	
1236.20000	-0.7458	
1236.40000	-0.7207	
1236.60000	-0.6973	
1236.80000	-0.6746	
1237.00000	-0.6537	
