______________________	______________________	______________________	______________________	______________________	______________________	______________________	______________________	______________________	
data file :	C:\emka\iox_2_9_5_73\data\20190517-piga.mkt
saved on :	
______________________	______________________	______________________	______________________	______________________	______________________	______________________	______________________	______________________	
printed on :	june   6, 2019, at  11: 10: 26
export mode :	to text file
print author :	no_logged_user
print com :	no available comment
ecgAuto version :	3.3.5.6 []
original sample freq (Hz) :
	 ECG	5000
	 Pig Aortic Pressure	1000
	 Cam Fire	500
	 Bloom A	500
	 Bloom B	500
	 CFR	1000
undersampling factor :		1
print sample freq (Hz) :		5000
______________________	______________________	______________________	______________________	______________________	______________________	______________________	______________________	______________________	

time ms	 ECG	
	V	


...................	...................	...................	...................	...................	...................	...................	...................	...................	...................	...................	...................	...................	
zone-start :	exp_JoVE-AVNERP	time duration s :	00.00000	data duration s :	15.00000	stream section :	1
in-period :	op 1, p 1, r 1, p[r] 1	Noname #1	0.00e+00	
start period-time :	  00:53:50.985
start CPU time :	may  17, 2019, 14: 10: 38
start site-time :	  00:53:50.986
...................	...................	...................	...................	...................	...................	...................	...................	...................	...................	...................	...................	...................	
0.20000	-0.0612	
0.40000	-0.0615	
0.60000	-0.0610	
0.80000	-0.0610	
1.00000	-0.0610	
1.20000	-0.0609	
1.40000	-0.0606	
1.60000	-0.0606	
1.80000	-0.0598	
2.00000	-0.0597	
2.20000	-0.0594	
2.40000	-0.0589	
2.60000	-0.0586	
2.80000	-0.0581	
3.00000	-0.0580	
3.20000	-0.0571	
3.40000	-0.0566	
3.60000	-0.0566	
3.80000	-0.0558	
4.00000	-0.0557	
4.20000	-0.0555	
4.40000	-0.0549	
4.60000	-0.0548	
4.80000	-0.0548	
5.00000	-0.0537	
5.20000	-0.0536	
5.40000	-0.0533	
5.60000	-0.0534	
5.80000	-0.0537	
6.00000	-0.0534	
6.20000	-0.0531	
6.40000	-0.0526	
6.60000	-0.0528	
6.80000	-0.0522	
7.00000	-0.0522	
7.20000	-0.0519	
7.40000	-0.0519	
7.60000	-0.0519	
7.80000	-0.0514	
8.00000	-0.0513	
8.20000	-0.0513	
8.40000	-0.0513	
8.60000	-0.0516	
8.80000	-0.0525	
9.00000	-0.0528	
9.20000	-0.0531	
9.40000	-0.0539	
9.60000	-0.0546	
9.80000	-0.0549	
10.00000	-0.0557	
10.20000	-0.0565	
10.40000	-0.0571	
10.60000	-0.0577	
10.80000	-0.0584	
11.00000	-0.0589	
11.20000	-0.0600	
11.40000	-0.0606	
11.60000	-0.0612	
11.80000	-0.0618	
12.00000	-0.0620	
12.20000	-0.0623	
12.40000	-0.0629	
12.60000	-0.0635	
12.80000	-0.0641	
13.00000	-0.0645	
13.20000	-0.0652	
13.40000	-0.0655	
13.60000	-0.0661	
13.80000	-0.0659	
14.00000	-0.0664	
14.20000	-0.0664	
14.40000	-0.0670	
14.60000	-0.0667	
14.80000	-0.0671	
15.00000	-0.0673	
15.20000	-0.0674	
15.40000	-0.0677	
15.60000	-0.0676	
15.80000	-0.0679	
16.00000	-0.0676	
16.20000	-0.0674	
16.40000	-0.0673	
16.60000	-0.0673	
16.80000	-0.0670	
17.00000	-0.0667	
17.20000	-0.0667	
17.40000	-0.0664	
17.60000	-0.0658	
17.80000	-0.0659	
18.00000	-0.0656	
18.20000	-0.0650	
18.40000	-0.0641	
18.60000	-0.0638	
18.80000	-0.0633	
19.00000	-0.0627	
19.20000	-0.0621	
19.40000	-0.0615	
19.60000	-0.0615	
19.80000	-0.0606	
20.00000	-0.0600	
20.20000	-0.0595	
20.40000	-0.0587	
20.60000	-0.0580	
20.80000	-0.0577	
21.00000	-0.0572	
21.20000	-0.0568	
21.40000	-0.0562	
21.60000	-0.0557	
21.80000	-0.0552	
22.00000	-0.0548	
22.20000	-0.0545	
22.40000	-0.0548	
22.60000	-0.0546	
22.80000	-0.0540	
23.00000	-0.0536	
23.20000	-0.0533	
23.40000	-0.0526	
23.60000	-0.0523	
23.80000	-0.0522	
24.00000	-0.0517	
24.20000	-0.0514	
24.40000	-0.0511	
24.60000	-0.0507	
24.80000	-0.0505	
25.00000	-0.0507	
25.20000	-0.0508	
25.40000	-0.0510	
25.60000	-0.0511	
25.80000	-0.0516	
26.00000	-0.0523	
26.20000	-0.0523	
26.40000	-0.0528	
26.60000	-0.0531	
26.80000	-0.0533	
27.00000	-0.0539	
27.20000	-0.0548	
27.40000	-0.0551	
27.60000	-0.0555	
27.80000	-0.0562	
28.00000	-0.0568	
28.20000	-0.0574	
28.40000	-0.0578	
28.60000	-0.0580	
28.80000	-0.0578	
29.00000	-0.0584	
29.20000	-0.0589	
29.40000	-0.0589	
29.60000	-0.0591	
29.80000	-0.0598	
30.00000	-0.0595	
30.20000	-0.0600	
30.40000	-0.0603	
30.60000	-0.0601	
30.80000	-0.0606	
31.00000	-0.0603	
31.20000	-0.0603	
31.40000	-0.0603	
31.60000	-0.0610	
31.80000	-0.0607	
32.00000	-0.0607	
32.20000	-0.0606	
32.40000	-0.0607	
32.60000	-0.0600	
32.80000	-0.0600	
33.00000	-0.0598	
33.20000	-0.0595	
33.40000	-0.0592	
33.60000	-0.0589	
33.80000	-0.0584	
34.00000	-0.0578	
34.20000	-0.0577	
34.40000	-0.0572	
34.60000	-0.0568	
34.80000	-0.0558	
35.00000	-0.0554	
35.20000	-0.0548	
35.40000	-0.0543	
35.60000	-0.0536	
35.80000	-0.0529	
36.00000	-0.0525	
36.20000	-0.0514	
36.40000	-0.0508	
36.60000	-0.0502	
36.80000	-0.0493	
37.00000	-0.0484	
37.20000	-0.0476	
37.40000	-0.0471	
37.60000	-0.0467	
37.80000	-0.0462	
38.00000	-0.0453	
38.20000	-0.0450	
38.40000	-0.0443	
38.60000	-0.0438	
38.80000	-0.0432	
39.00000	-0.0430	
39.20000	-0.0427	
39.40000	-0.0423	
39.60000	-0.0420	
39.80000	-0.0415	
40.00000	-0.0407	
40.20000	-0.0401	
40.40000	-0.0400	
40.60000	-0.0394	
40.80000	-0.0391	
41.00000	-0.0389	
41.20000	-0.0381	
41.40000	-0.0377	
41.60000	-0.0377	
41.80000	-0.0378	
42.00000	-0.0375	
42.20000	-0.0381	
42.40000	-0.0383	
42.60000	-0.0388	
42.80000	-0.0394	
43.00000	-0.0395	
43.20000	-0.0398	
43.40000	-0.0403	
43.60000	-0.0409	
43.80000	-0.0415	
44.00000	-0.0417	
44.20000	-0.0420	
44.40000	-0.0423	
44.60000	-0.0427	
44.80000	-0.0438	
45.00000	-0.0438	
45.20000	-0.0441	
45.40000	-0.0444	
45.60000	-0.0444	
45.80000	-0.0444	
46.00000	-0.0447	
46.20000	-0.0452	
46.40000	-0.0453	
46.60000	-0.0458	
46.80000	-0.0459	
47.00000	-0.0464	
47.20000	-0.0462	
47.40000	-0.0462	
47.60000	-0.0458	
47.80000	-0.0461	
48.00000	-0.0459	
48.20000	-0.0461	
48.40000	-0.0461	
48.60000	-0.0461	
48.80000	-0.0461	
49.00000	-0.0459	
49.20000	-0.0458	
49.40000	-0.0453	
49.60000	-0.0453	
49.80000	-0.0449	
50.00000	-0.0446	
50.20000	-0.0443	
50.40000	-0.0439	
50.60000	-0.0433	
50.80000	-0.0432	
51.00000	-0.0426	
51.20000	-0.0421	
51.40000	-0.0417	
51.60000	-0.0409	
51.80000	-0.0404	
52.00000	-0.0398	
52.20000	-0.0389	
52.40000	-0.0383	
52.60000	-0.0378	
52.80000	-0.0372	
53.00000	-0.0365	
53.20000	-0.0357	
53.40000	-0.0349	
53.60000	-0.0343	
53.80000	-0.0337	
54.00000	-0.0333	
54.20000	-0.0327	
54.40000	-0.0317	
54.60000	-0.0314	
54.80000	-0.0310	
55.00000	-0.0299	
55.20000	-0.0291	
55.40000	-0.0290	
55.60000	-0.0285	
55.80000	-0.0285	
56.00000	-0.0282	
56.20000	-0.0275	
56.40000	-0.0272	
56.60000	-0.0267	
56.80000	-0.0262	
57.00000	-0.0258	
57.20000	-0.0253	
57.40000	-0.0250	
57.60000	-0.0249	
57.80000	-0.0240	
58.00000	-0.0238	
58.20000	-0.0233	
58.40000	-0.0232	
58.60000	-0.0235	
58.80000	-0.0240	
59.00000	-0.0243	
59.20000	-0.0247	
59.40000	-0.0250	
59.60000	-0.0253	
59.80000	-0.0256	
60.00000	-0.0261	
60.20000	-0.0267	
60.40000	-0.0270	
60.60000	-0.0276	
60.80000	-0.0282	
61.00000	-0.0285	
61.20000	-0.0298	
61.40000	-0.0304	
61.60000	-0.0310	
61.80000	-0.0310	
62.00000	-0.0311	
62.20000	-0.0316	
62.40000	-0.0317	
62.60000	-0.0320	
62.80000	-0.0323	
63.00000	-0.0328	
63.20000	-0.0333	
63.40000	-0.0337	
63.60000	-0.0336	
63.80000	-0.0340	
64.00000	-0.0340	
64.20000	-0.0345	
64.40000	-0.0348	
64.60000	-0.0345	
64.80000	-0.0348	
65.00000	-0.0345	
65.20000	-0.0345	
65.40000	-0.0349	
65.60000	-0.0346	
65.80000	-0.0345	
66.00000	-0.0345	
66.20000	-0.0345	
66.40000	-0.0342	
66.60000	-0.0340	
66.80000	-0.0339	
67.00000	-0.0337	
67.20000	-0.0336	
67.40000	-0.0333	
67.60000	-0.0331	
67.80000	-0.0325	
68.00000	-0.0322	
68.20000	-0.0316	
68.40000	-0.0314	
68.60000	-0.0310	
68.80000	-0.0302	
69.00000	-0.0298	
69.20000	-0.0293	
69.40000	-0.0285	
69.60000	-0.0282	
69.80000	-0.0275	
70.00000	-0.0269	
70.20000	-0.0259	
70.40000	-0.0258	
70.60000	-0.0249	
70.80000	-0.0246	
71.00000	-0.0237	
71.20000	-0.0233	
71.40000	-0.0229	
71.60000	-0.0218	
71.80000	-0.0218	
72.00000	-0.0209	
72.20000	-0.0209	
72.40000	-0.0212	
72.60000	-0.0209	
72.80000	-0.0206	
73.00000	-0.0198	
73.20000	-0.0194	
73.40000	-0.0192	
73.60000	-0.0189	
73.80000	-0.0185	
74.00000	-0.0186	
74.20000	-0.0185	
74.40000	-0.0177	
74.60000	-0.0177	
74.80000	-0.0175	
75.00000	-0.0177	
75.20000	-0.0177	
75.40000	-0.0182	
75.60000	-0.0185	
75.80000	-0.0188	
76.00000	-0.0195	
76.20000	-0.0200	
76.40000	-0.0200	
76.60000	-0.0209	
76.80000	-0.0217	
77.00000	-0.0221	
77.20000	-0.0229	
77.40000	-0.0237	
77.60000	-0.0243	
77.80000	-0.0250	
78.00000	-0.0253	
78.20000	-0.0264	
78.40000	-0.0264	
78.60000	-0.0270	
78.80000	-0.0273	
79.00000	-0.0278	
79.20000	-0.0284	
79.40000	-0.0285	
79.60000	-0.0294	
79.80000	-0.0301	
80.00000	-0.0302	
80.20000	-0.0304	
80.40000	-0.0307	
80.60000	-0.0313	
80.80000	-0.0314	
81.00000	-0.0314	
81.20000	-0.0316	
81.40000	-0.0317	
81.60000	-0.0317	
81.80000	-0.0319	
82.00000	-0.0322	
82.20000	-0.0325	
82.40000	-0.0322	
82.60000	-0.0322	
82.80000	-0.0325	
83.00000	-0.0323	
83.20000	-0.0320	
83.40000	-0.0317	
83.60000	-0.0316	
83.80000	-0.0313	
84.00000	-0.0313	
84.20000	-0.0307	
84.40000	-0.0305	
84.60000	-0.0304	
84.80000	-0.0299	
85.00000	-0.0296	
85.20000	-0.0291	
85.40000	-0.0285	
85.60000	-0.0281	
85.80000	-0.0275	
86.00000	-0.0272	
86.20000	-0.0270	
86.40000	-0.0261	
86.60000	-0.0252	
86.80000	-0.0249	
87.00000	-0.0241	
87.20000	-0.0235	
87.40000	-0.0233	
87.60000	-0.0227	
87.80000	-0.0224	
88.00000	-0.0220	
88.20000	-0.0214	
88.40000	-0.0212	
88.60000	-0.0206	
88.80000	-0.0204	
89.00000	-0.0206	
89.20000	-0.0200	
89.40000	-0.0200	
89.60000	-0.0198	
89.80000	-0.0192	
90.00000	-0.0191	
90.20000	-0.0188	
90.40000	-0.0188	
90.60000	-0.0185	
90.80000	-0.0185	
91.00000	-0.0183	
91.20000	-0.0177	
91.40000	-0.0177	
91.60000	-0.0175	
91.80000	-0.0175	
92.00000	-0.0179	
92.20000	-0.0183	
92.40000	-0.0191	
92.60000	-0.0194	
92.80000	-0.0200	
93.00000	-0.0208	
93.20000	-0.0211	
93.40000	-0.0215	
93.60000	-0.0220	
93.80000	-0.0227	
94.00000	-0.0230	
94.20000	-0.0240	
94.40000	-0.0246	
94.60000	-0.0256	
94.80000	-0.0262	
95.00000	-0.0269	
95.20000	-0.0276	
95.40000	-0.0278	
95.60000	-0.0279	
95.80000	-0.0284	
96.00000	-0.0294	
96.20000	-0.0294	
96.40000	-0.0299	
96.60000	-0.0305	
96.80000	-0.0311	
97.00000	-0.0313	
97.20000	-0.0316	
97.40000	-0.0319	
97.60000	-0.0320	
97.80000	-0.0322	
98.00000	-0.0327	
98.20000	-0.0328	
98.40000	-0.0328	
98.60000	-0.0334	
98.80000	-0.0334	
99.00000	-0.0336	
99.20000	-0.0334	
99.40000	-0.0334	
99.60000	-0.0331	
99.80000	-0.0333	
100.00000	-0.0331	
100.20000	-0.0328	
100.40000	-0.0323	
100.60000	-0.0327	
100.80000	-0.0327	
101.00000	-0.0320	
101.20000	-0.0319	
101.40000	-0.0319	
101.60000	-0.0314	
101.80000	-0.0310	
102.00000	-0.0302	
102.20000	-0.0298	
102.40000	-0.0293	
102.60000	-0.0290	
102.80000	-0.0288	
103.00000	-0.0281	
103.20000	-0.0276	
103.40000	-0.0270	
103.60000	-0.0262	
103.80000	-0.0256	
104.00000	-0.0252	
104.20000	-0.0250	
104.40000	-0.0246	
104.60000	-0.0240	
104.80000	-0.0233	
105.00000	-0.0229	
105.20000	-0.0224	
105.40000	-0.0226	
105.60000	-0.0220	
105.80000	-0.0218	
106.00000	-0.0221	
106.20000	-0.0215	
106.40000	-0.0211	
106.60000	-0.0208	
106.80000	-0.0204	
107.00000	-0.0203	
107.20000	-0.0197	
107.40000	-0.0195	
107.60000	-0.0195	
107.80000	-0.0189	
108.00000	-0.0192	
108.20000	-0.0192	
108.40000	-0.0192	
108.60000	-0.0195	
108.80000	-0.0198	
109.00000	-0.0206	
109.20000	-0.0211	
109.40000	-0.0214	
109.60000	-0.0220	
109.80000	-0.0224	
110.00000	-0.0230	
110.20000	-0.0238	
110.40000	-0.0246	
110.60000	-0.0249	
110.80000	-0.0255	
111.00000	-0.0259	
111.20000	-0.0270	
111.40000	-0.0270	
111.60000	-0.0281	
111.80000	-0.0285	
112.00000	-0.0285	
112.20000	-0.0294	
112.40000	-0.0296	
112.60000	-0.0304	
112.80000	-0.0310	
113.00000	-0.0313	
113.20000	-0.0319	
113.40000	-0.0323	
113.60000	-0.0325	
113.80000	-0.0328	
114.00000	-0.0334	
114.20000	-0.0336	
114.40000	-0.0340	
114.60000	-0.0342	
114.80000	-0.0340	
115.00000	-0.0345	
115.20000	-0.0346	
115.40000	-0.0346	
115.60000	-0.0346	
115.80000	-0.0352	
116.00000	-0.0346	
116.20000	-0.0346	
116.40000	-0.0343	
116.60000	-0.0343	
116.80000	-0.0342	
117.00000	-0.0340	
117.20000	-0.0340	
117.40000	-0.0334	
117.60000	-0.0333	
117.80000	-0.0331	
118.00000	-0.0325	
118.20000	-0.0323	
118.40000	-0.0317	
118.60000	-0.0314	
118.80000	-0.0305	
119.00000	-0.0304	
119.20000	-0.0304	
119.40000	-0.0296	
119.60000	-0.0291	
119.80000	-0.0282	
120.00000	-0.0275	
120.20000	-0.0270	
120.40000	-0.0267	
120.60000	-0.0261	
120.80000	-0.0256	
121.00000	-0.0253	
121.20000	-0.0249	
121.40000	-0.0243	
121.60000	-0.0240	
121.80000	-0.0233	
122.00000	-0.0229	
122.20000	-0.0229	
122.40000	-0.0226	
122.60000	-0.0227	
122.80000	-0.0220	
123.00000	-0.0218	
123.20000	-0.0212	
123.40000	-0.0211	
123.60000	-0.0211	
123.80000	-0.0206	
124.00000	-0.0206	
124.20000	-0.0206	
124.40000	-0.0198	
124.60000	-0.0197	
124.80000	-0.0197	
125.00000	-0.0197	
125.20000	-0.0197	
125.40000	-0.0203	
125.60000	-0.0208	
125.80000	-0.0215	
126.00000	-0.0220	
126.20000	-0.0226	
126.40000	-0.0233	
126.60000	-0.0237	
126.80000	-0.0247	
127.00000	-0.0250	
127.20000	-0.0256	
127.40000	-0.0262	
127.60000	-0.0267	
127.80000	-0.0273	
128.00000	-0.0279	
128.20000	-0.0291	
128.40000	-0.0294	
128.60000	-0.0299	
128.80000	-0.0302	
129.00000	-0.0307	
129.20000	-0.0311	
129.40000	-0.0314	
129.60000	-0.0319	
129.80000	-0.0327	
130.00000	-0.0328	
130.20000	-0.0333	
130.40000	-0.0333	
130.60000	-0.0339	
130.80000	-0.0339	
131.00000	-0.0342	
131.20000	-0.0340	
131.40000	-0.0346	
131.60000	-0.0346	
131.80000	-0.0349	
132.00000	-0.0354	
132.20000	-0.0354	
132.40000	-0.0354	
132.60000	-0.0356	
132.80000	-0.0354	
133.00000	-0.0349	
133.20000	-0.0352	
133.40000	-0.0352	
133.60000	-0.0348	
133.80000	-0.0346	
134.00000	-0.0342	
134.20000	-0.0342	
134.40000	-0.0339	
134.60000	-0.0336	
134.80000	-0.0333	
135.00000	-0.0327	
135.20000	-0.0319	
135.40000	-0.0317	
135.60000	-0.0311	
135.80000	-0.0305	
136.00000	-0.0302	
136.20000	-0.0298	
136.40000	-0.0291	
136.60000	-0.0282	
136.80000	-0.0281	
137.00000	-0.0275	
137.20000	-0.0275	
137.40000	-0.0267	
137.60000	-0.0259	
137.80000	-0.0255	
138.00000	-0.0252	
138.20000	-0.0247	
138.40000	-0.0243	
138.60000	-0.0237	
138.80000	-0.0235	
139.00000	-0.0237	
139.20000	-0.0235	
139.40000	-0.0232	
139.60000	-0.0229	
139.80000	-0.0224	
140.00000	-0.0220	
140.20000	-0.0215	
140.40000	-0.0214	
140.60000	-0.0214	
140.80000	-0.0209	
141.00000	-0.0208	
141.20000	-0.0206	
141.40000	-0.0206	
141.60000	-0.0204	
141.80000	-0.0208	
142.00000	-0.0211	
142.20000	-0.0212	
142.40000	-0.0220	
142.60000	-0.0227	
142.80000	-0.0232	
143.00000	-0.0237	
143.20000	-0.0241	
143.40000	-0.0249	
143.60000	-0.0255	
143.80000	-0.0262	
144.00000	-0.0264	
144.20000	-0.0276	
144.40000	-0.0279	
144.60000	-0.0288	
144.80000	-0.0296	
145.00000	-0.0298	
145.20000	-0.0299	
145.40000	-0.0304	
145.60000	-0.0305	
145.80000	-0.0313	
146.00000	-0.0317	
146.20000	-0.0320	
146.40000	-0.0325	
146.60000	-0.0328	
146.80000	-0.0331	
147.00000	-0.0334	
147.20000	-0.0336	
147.40000	-0.0342	
147.60000	-0.0340	
147.80000	-0.0342	
148.00000	-0.0345	
148.20000	-0.0346	
148.40000	-0.0348	
148.60000	-0.0348	
148.80000	-0.0349	
149.00000	-0.0352	
149.20000	-0.0354	
149.40000	-0.0349	
149.60000	-0.0346	
149.80000	-0.0349	
150.00000	-0.0348	
150.20000	-0.0345	
150.40000	-0.0345	
150.60000	-0.0342	
150.80000	-0.0340	
151.00000	-0.0336	
151.20000	-0.0336	
151.40000	-0.0328	
151.60000	-0.0325	
151.80000	-0.0322	
152.00000	-0.0316	
152.20000	-0.0313	
152.40000	-0.0310	
152.60000	-0.0299	
152.80000	-0.0299	
153.00000	-0.0294	
153.20000	-0.0288	
153.40000	-0.0281	
153.60000	-0.0275	
153.80000	-0.0272	
154.00000	-0.0267	
154.20000	-0.0264	
154.40000	-0.0259	
154.60000	-0.0255	
154.80000	-0.0249	
155.00000	-0.0246	
155.20000	-0.0241	
155.40000	-0.0237	
155.60000	-0.0237	
155.80000	-0.0235	
156.00000	-0.0237	
156.20000	-0.0230	
156.40000	-0.0226	
156.60000	-0.0218	
156.80000	-0.0217	
157.00000	-0.0215	
157.20000	-0.0214	
157.40000	-0.0211	
157.60000	-0.0211	
157.80000	-0.0206	
158.00000	-0.0206	
158.20000	-0.0204	
158.40000	-0.0206	
158.60000	-0.0209	
158.80000	-0.0211	
159.00000	-0.0217	
159.20000	-0.0220	
159.40000	-0.0229	
159.60000	-0.0233	
159.80000	-0.0240	
160.00000	-0.0246	
160.20000	-0.0253	
160.40000	-0.0258	
160.60000	-0.0261	
160.80000	-0.0267	
161.00000	-0.0275	
161.20000	-0.0281	
161.40000	-0.0288	
161.60000	-0.0298	
161.80000	-0.0299	
162.00000	-0.0305	
162.20000	-0.0304	
162.40000	-0.0310	
162.60000	-0.0316	
162.80000	-0.0322	
163.00000	-0.0328	
163.20000	-0.0333	
163.40000	-0.0336	
163.60000	-0.0343	
163.80000	-0.0343	
164.00000	-0.0348	
164.20000	-0.0348	
164.40000	-0.0349	
164.60000	-0.0352	
164.80000	-0.0356	
165.00000	-0.0352	
165.20000	-0.0356	
165.40000	-0.0359	
165.60000	-0.0359	
165.80000	-0.0357	
166.00000	-0.0357	
166.20000	-0.0359	
166.40000	-0.0356	
166.60000	-0.0352	
166.80000	-0.0349	
167.00000	-0.0348	
167.20000	-0.0348	
167.40000	-0.0345	
167.60000	-0.0343	
167.80000	-0.0340	
168.00000	-0.0337	
168.20000	-0.0333	
168.40000	-0.0327	
168.60000	-0.0320	
168.80000	-0.0317	
169.00000	-0.0313	
169.20000	-0.0307	
169.40000	-0.0304	
169.60000	-0.0301	
169.80000	-0.0293	
170.00000	-0.0288	
170.20000	-0.0282	
170.40000	-0.0279	
170.60000	-0.0273	
170.80000	-0.0269	
171.00000	-0.0269	
171.20000	-0.0261	
171.40000	-0.0253	
171.60000	-0.0249	
171.80000	-0.0246	
172.00000	-0.0240	
172.20000	-0.0240	
172.40000	-0.0240	
172.60000	-0.0238	
172.80000	-0.0230	
173.00000	-0.0230	
173.20000	-0.0229	
173.40000	-0.0221	
173.60000	-0.0220	
173.80000	-0.0215	
174.00000	-0.0217	
174.20000	-0.0215	
174.40000	-0.0211	
174.60000	-0.0209	
174.80000	-0.0208	
175.00000	-0.0208	
175.20000	-0.0209	
175.40000	-0.0217	
175.60000	-0.0220	
175.80000	-0.0226	
176.00000	-0.0232	
176.20000	-0.0237	
176.40000	-0.0240	
176.60000	-0.0246	
176.80000	-0.0250	
177.00000	-0.0256	
177.20000	-0.0262	
177.40000	-0.0272	
177.60000	-0.0276	
177.80000	-0.0285	
178.00000	-0.0291	
178.20000	-0.0294	
178.40000	-0.0299	
178.60000	-0.0313	
178.80000	-0.0316	
179.00000	-0.0317	
179.20000	-0.0320	
179.40000	-0.0325	
179.60000	-0.0327	
179.80000	-0.0333	
180.00000	-0.0339	
180.20000	-0.0343	
180.40000	-0.0345	
180.60000	-0.0346	
180.80000	-0.0348	
181.00000	-0.0352	
181.20000	-0.0354	
181.40000	-0.0356	
181.60000	-0.0357	
181.80000	-0.0359	
182.00000	-0.0360	
182.20000	-0.0362	
182.40000	-0.0362	
182.60000	-0.0360	
182.80000	-0.0359	
183.00000	-0.0359	
183.20000	-0.0359	
183.40000	-0.0354	
183.60000	-0.0349	
183.80000	-0.0349	
184.00000	-0.0348	
184.20000	-0.0346	
184.40000	-0.0340	
184.60000	-0.0339	
184.80000	-0.0333	
185.00000	-0.0327	
185.20000	-0.0322	
185.40000	-0.0317	
185.60000	-0.0314	
185.80000	-0.0311	
186.00000	-0.0307	
186.20000	-0.0302	
186.40000	-0.0296	
186.60000	-0.0293	
186.80000	-0.0284	
187.00000	-0.0278	
187.20000	-0.0273	
187.40000	-0.0269	
187.60000	-0.0264	
187.80000	-0.0259	
188.00000	-0.0258	
188.20000	-0.0250	
188.40000	-0.0246	
188.60000	-0.0243	
188.80000	-0.0240	
189.00000	-0.0241	
189.20000	-0.0241	
189.40000	-0.0235	
189.60000	-0.0230	
189.80000	-0.0230	
190.00000	-0.0226	
190.20000	-0.0221	
190.40000	-0.0220	
190.60000	-0.0218	
190.80000	-0.0214	
191.00000	-0.0214	
191.20000	-0.0212	
191.40000	-0.0211	
191.60000	-0.0211	
191.80000	-0.0214	
192.00000	-0.0214	
192.20000	-0.0220	
192.40000	-0.0227	
192.60000	-0.0230	
192.80000	-0.0233	
193.00000	-0.0241	
193.20000	-0.0246	
193.40000	-0.0252	
193.60000	-0.0258	
193.80000	-0.0267	
194.00000	-0.0272	
194.20000	-0.0276	
194.40000	-0.0281	
194.60000	-0.0288	
194.80000	-0.0290	
195.00000	-0.0301	
195.20000	-0.0302	
195.40000	-0.0304	
195.60000	-0.0310	
195.80000	-0.0313	
196.00000	-0.0317	
196.20000	-0.0323	
196.40000	-0.0327	
196.60000	-0.0334	
196.80000	-0.0339	
197.00000	-0.0342	
197.20000	-0.0346	
197.40000	-0.0343	
197.60000	-0.0349	
197.80000	-0.0354	
198.00000	-0.0352	
198.20000	-0.0356	
198.40000	-0.0359	
198.60000	-0.0357	
198.80000	-0.0359	
199.00000	-0.0359	
199.20000	-0.0360	
199.40000	-0.0357	
199.60000	-0.0356	
199.80000	-0.0357	
200.00000	-0.0356	
200.20000	-0.0352	
200.40000	-0.0348	
200.60000	-0.0346	
200.80000	-0.0343	
201.00000	-0.0342	
201.20000	-0.0337	
201.40000	-0.0336	
201.60000	-0.0331	
201.80000	-0.0325	
202.00000	-0.0319	
202.20000	-0.0316	
202.40000	-0.0313	
202.60000	-0.0310	
202.80000	-0.0304	
203.00000	-0.0298	
203.20000	-0.0285	
203.40000	-0.0284	
203.60000	-0.0278	
203.80000	-0.0272	
204.00000	-0.0264	
204.20000	-0.0264	
204.40000	-0.0259	
204.60000	-0.0256	
204.80000	-0.0252	
205.00000	-0.0246	
205.20000	-0.0243	
205.40000	-0.0241	
205.60000	-0.0240	
205.80000	-0.0240	
206.00000	-0.0241	
206.20000	-0.0237	
206.40000	-0.0230	
206.60000	-0.0229	
206.80000	-0.0227	
207.00000	-0.0220	
207.20000	-0.0220	
207.40000	-0.0220	
207.60000	-0.0218	
207.80000	-0.0211	
208.00000	-0.0214	
208.20000	-0.0212	
208.40000	-0.0214	
208.60000	-0.0212	
208.80000	-0.0218	
209.00000	-0.0221	
209.20000	-0.0230	
209.40000	-0.0235	
209.60000	-0.0241	
209.80000	-0.0246	
210.00000	-0.0252	
210.20000	-0.0259	
210.40000	-0.0267	
210.60000	-0.0272	
210.80000	-0.0276	
211.00000	-0.0281	
211.20000	-0.0285	
211.40000	-0.0296	
211.60000	-0.0301	
211.80000	-0.0302	
212.00000	-0.0307	
212.20000	-0.0310	
212.40000	-0.0314	
212.60000	-0.0322	
212.80000	-0.0327	
213.00000	-0.0333	
213.20000	-0.0334	
213.40000	-0.0340	
213.60000	-0.0343	
213.80000	-0.0342	
214.00000	-0.0348	
214.20000	-0.0348	
214.40000	-0.0354	
214.60000	-0.0354	
214.80000	-0.0354	
215.00000	-0.0356	
215.20000	-0.0359	
215.40000	-0.0362	
215.60000	-0.0359	
215.80000	-0.0362	
216.00000	-0.0362	
216.20000	-0.0360	
216.40000	-0.0359	
216.60000	-0.0356	
216.80000	-0.0352	
217.00000	-0.0352	
217.20000	-0.0349	
217.40000	-0.0346	
217.60000	-0.0345	
217.80000	-0.0345	
218.00000	-0.0337	
218.20000	-0.0336	
218.40000	-0.0328	
218.60000	-0.0325	
218.80000	-0.0320	
219.00000	-0.0316	
219.20000	-0.0313	
219.40000	-0.0310	
219.60000	-0.0301	
219.80000	-0.0296	
220.00000	-0.0290	
220.20000	-0.0281	
220.40000	-0.0276	
220.60000	-0.0272	
220.80000	-0.0270	
221.00000	-0.0262	
221.20000	-0.0261	
221.40000	-0.0256	
221.60000	-0.0249	
221.80000	-0.0243	
222.00000	-0.0238	
222.20000	-0.0243	
222.40000	-0.0243	
222.60000	-0.0241	
222.80000	-0.0235	
223.00000	-0.0232	
223.20000	-0.0230	
223.40000	-0.0227	
223.60000	-0.0224	
223.80000	-0.0224	
224.00000	-0.0220	
224.20000	-0.0221	
224.40000	-0.0215	
224.60000	-0.0215	
224.80000	-0.0214	
225.00000	-0.0214	
225.20000	-0.0217	
225.40000	-0.0224	
225.60000	-0.0226	
225.80000	-0.0232	
226.00000	-0.0238	
226.20000	-0.0243	
226.40000	-0.0247	
226.60000	-0.0252	
226.80000	-0.0258	
227.00000	-0.0262	
227.20000	-0.0270	
227.40000	-0.0276	
227.60000	-0.0282	
227.80000	-0.0290	
228.00000	-0.0294	
228.20000	-0.0299	
228.40000	-0.0305	
228.60000	-0.0310	
228.80000	-0.0313	
229.00000	-0.0316	
229.20000	-0.0320	
229.40000	-0.0323	
229.60000	-0.0331	
229.80000	-0.0334	
230.00000	-0.0337	
230.20000	-0.0340	
230.40000	-0.0343	
230.60000	-0.0348	
230.80000	-0.0349	
231.00000	-0.0352	
231.20000	-0.0356	
231.40000	-0.0359	
231.60000	-0.0359	
231.80000	-0.0360	
232.00000	-0.0362	
232.20000	-0.0363	
232.40000	-0.0362	
232.60000	-0.0359	
232.80000	-0.0359	
233.00000	-0.0360	
233.20000	-0.0359	
233.40000	-0.0356	
233.60000	-0.0352	
233.80000	-0.0357	
234.00000	-0.0352	
234.20000	-0.0348	
234.40000	-0.0346	
234.60000	-0.0342	
234.80000	-0.0334	
235.00000	-0.0333	
235.20000	-0.0327	
235.40000	-0.0320	
235.60000	-0.0317	
235.80000	-0.0314	
236.00000	-0.0311	
236.20000	-0.0302	
236.40000	-0.0298	
236.60000	-0.0293	
236.80000	-0.0285	
237.00000	-0.0282	
237.20000	-0.0275	
237.40000	-0.0270	
237.60000	-0.0270	
237.80000	-0.0261	
238.00000	-0.0258	
238.20000	-0.0255	
238.40000	-0.0250	
238.60000	-0.0247	
238.80000	-0.0247	
239.00000	-0.0249	
239.20000	-0.0247	
239.40000	-0.0240	
239.60000	-0.0237	
239.80000	-0.0232	
240.00000	-0.0230	
240.20000	-0.0224	
240.40000	-0.0221	
240.60000	-0.0220	
240.80000	-0.0220	
241.00000	-0.0215	
241.20000	-0.0215	
241.40000	-0.0209	
241.60000	-0.0209	
241.80000	-0.0212	
242.00000	-0.0217	
242.20000	-0.0220	
242.40000	-0.0227	
242.60000	-0.0232	
242.80000	-0.0238	
243.00000	-0.0243	
243.20000	-0.0249	
243.40000	-0.0256	
243.60000	-0.0261	
243.80000	-0.0267	
244.00000	-0.0272	
244.20000	-0.0278	
244.40000	-0.0281	
244.60000	-0.0288	
244.80000	-0.0296	
245.00000	-0.0301	
245.20000	-0.0302	
245.40000	-0.0307	
245.60000	-0.0313	
245.80000	-0.0316	
246.00000	-0.0319	
246.20000	-0.0327	
246.40000	-0.0331	
246.60000	-0.0336	
246.80000	-0.0340	
247.00000	-0.0339	
247.20000	-0.0342	
247.40000	-0.0346	
247.60000	-0.0349	
247.80000	-0.0348	
248.00000	-0.0352	
248.20000	-0.0354	
248.40000	-0.0354	
248.60000	-0.0356	
248.80000	-0.0356	
249.00000	-0.0360	
249.20000	-0.0357	
249.40000	-0.0359	
249.60000	-0.0356	
249.80000	-0.0356	
250.00000	-0.0354	
250.20000	-0.0352	
250.40000	-0.0348	
250.60000	-0.0346	
250.80000	-0.0342	
251.00000	-0.0342	
251.20000	-0.0339	
251.40000	-0.0336	
251.60000	-0.0331	
251.80000	-0.0323	
252.00000	-0.0320	
252.20000	-0.0316	
252.40000	-0.0311	
252.60000	-0.0304	
252.80000	-0.0296	
253.00000	-0.0296	
253.20000	-0.0288	
253.40000	-0.0284	
253.60000	-0.0278	
253.80000	-0.0272	
254.00000	-0.0264	
254.20000	-0.0267	
254.40000	-0.0259	
254.60000	-0.0255	
254.80000	-0.0252	
255.00000	-0.0249	
255.20000	-0.0247	
255.40000	-0.0240	
255.60000	-0.0237	
255.80000	-0.0235	
256.00000	-0.0235	
256.20000	-0.0227	
256.40000	-0.0226	
256.60000	-0.0221	
256.80000	-0.0220	
257.00000	-0.0215	
257.20000	-0.0218	
257.40000	-0.0217	
257.60000	-0.0211	
257.80000	-0.0209	
258.00000	-0.0206	
258.20000	-0.0208	
258.40000	-0.0206	
258.60000	-0.0211	
258.80000	-0.0217	
259.00000	-0.0224	
259.20000	-0.0230	
259.40000	-0.0235	
259.60000	-0.0240	
259.80000	-0.0243	
260.00000	-0.0252	
260.20000	-0.0258	
260.40000	-0.0262	
260.60000	-0.0272	
260.80000	-0.0275	
261.00000	-0.0281	
261.20000	-0.0288	
261.40000	-0.0298	
261.60000	-0.0301	
261.80000	-0.0307	
262.00000	-0.0314	
262.20000	-0.0314	
262.40000	-0.0317	
262.60000	-0.0320	
262.80000	-0.0328	
263.00000	-0.0334	
263.20000	-0.0336	
263.40000	-0.0339	
263.60000	-0.0342	
263.80000	-0.0342	
264.00000	-0.0348	
264.20000	-0.0352	
264.40000	-0.0354	
264.60000	-0.0356	
264.80000	-0.0356	
265.00000	-0.0359	
265.20000	-0.0362	
265.40000	-0.0362	
265.60000	-0.0363	
265.80000	-0.0363	
266.00000	-0.0360	
266.20000	-0.0360	
266.40000	-0.0359	
266.60000	-0.0357	
266.80000	-0.0354	
267.00000	-0.0354	
267.20000	-0.0354	
267.40000	-0.0349	
267.60000	-0.0346	
267.80000	-0.0342	
268.00000	-0.0339	
268.20000	-0.0334	
268.40000	-0.0328	
268.60000	-0.0323	
268.80000	-0.0319	
269.00000	-0.0316	
269.20000	-0.0313	
269.40000	-0.0305	
269.60000	-0.0302	
269.80000	-0.0294	
270.00000	-0.0288	
270.20000	-0.0285	
270.40000	-0.0281	
270.60000	-0.0273	
270.80000	-0.0272	
271.00000	-0.0269	
271.20000	-0.0261	
271.40000	-0.0255	
271.60000	-0.0253	
271.80000	-0.0249	
272.00000	-0.0243	
272.20000	-0.0247	
272.40000	-0.0246	
272.60000	-0.0246	
272.80000	-0.0240	
273.00000	-0.0235	
273.20000	-0.0230	
273.40000	-0.0230	
273.60000	-0.0224	
273.80000	-0.0221	
274.00000	-0.0218	
274.20000	-0.0218	
274.40000	-0.0214	
274.60000	-0.0211	
274.80000	-0.0212	
275.00000	-0.0212	
275.20000	-0.0215	
275.40000	-0.0220	
275.60000	-0.0227	
275.80000	-0.0230	
276.00000	-0.0237	
276.20000	-0.0241	
276.40000	-0.0246	
276.60000	-0.0252	
276.80000	-0.0256	
277.00000	-0.0259	
277.20000	-0.0267	
277.40000	-0.0273	
277.60000	-0.0281	
277.80000	-0.0285	
278.00000	-0.0291	
278.20000	-0.0294	
278.40000	-0.0301	
278.60000	-0.0302	
278.80000	-0.0310	
279.00000	-0.0314	
279.20000	-0.0320	
279.40000	-0.0322	
279.60000	-0.0325	
279.80000	-0.0331	
280.00000	-0.0334	
280.20000	-0.0340	
280.40000	-0.0343	
280.60000	-0.0345	
280.80000	-0.0352	
281.00000	-0.0354	
281.20000	-0.0356	
281.40000	-0.0356	
281.60000	-0.0360	
281.80000	-0.0360	
282.00000	-0.0362	
282.20000	-0.0363	
282.40000	-0.0362	
282.60000	-0.0359	
282.80000	-0.0359	
283.00000	-0.0359	
283.20000	-0.0360	
283.40000	-0.0356	
283.60000	-0.0352	
283.80000	-0.0348	
284.00000	-0.0346	
284.20000	-0.0343	
284.40000	-0.0342	
284.60000	-0.0339	
284.80000	-0.0334	
285.00000	-0.0328	
285.20000	-0.0325	
285.40000	-0.0322	
285.60000	-0.0316	
285.80000	-0.0314	
286.00000	-0.0305	
286.20000	-0.0301	
286.40000	-0.0293	
286.60000	-0.0288	
286.80000	-0.0284	
287.00000	-0.0275	
287.20000	-0.0272	
287.40000	-0.0269	
287.60000	-0.0264	
287.80000	-0.0259	
288.00000	-0.0255	
288.20000	-0.0250	
288.40000	-0.0247	
288.60000	-0.0240	
288.80000	-0.0238	
289.00000	-0.0241	
289.20000	-0.0237	
289.40000	-0.0237	
289.60000	-0.0230	
289.80000	-0.0226	
290.00000	-0.0221	
290.20000	-0.0218	
290.40000	-0.0215	
290.60000	-0.0215	
290.80000	-0.0215	
291.00000	-0.0214	
291.20000	-0.0214	
291.40000	-0.0212	
291.60000	-0.0212	
291.80000	-0.0212	
292.00000	-0.0215	
292.20000	-0.0224	
292.40000	-0.0229	
292.60000	-0.0233	
292.80000	-0.0240	
293.00000	-0.0247	
293.20000	-0.0252	
293.40000	-0.0258	
293.60000	-0.0264	
293.80000	-0.0270	
294.00000	-0.0278	
294.20000	-0.0282	
294.40000	-0.0285	
294.60000	-0.0294	
294.80000	-0.0301	
295.00000	-0.0305	
295.20000	-0.0311	
295.40000	-0.0316	
295.60000	-0.0316	
295.80000	-0.0322	
296.00000	-0.0327	
296.20000	-0.0331	
296.40000	-0.0334	
296.60000	-0.0339	
296.80000	-0.0342	
297.00000	-0.0345	
297.20000	-0.0348	
297.40000	-0.0349	
297.60000	-0.0348	
297.80000	-0.0354	
298.00000	-0.0354	
298.20000	-0.0354	
298.40000	-0.0359	
298.60000	-0.0359	
298.80000	-0.0357	
299.00000	-0.0360	
299.20000	-0.0362	
299.40000	-0.0363	
299.60000	-0.0357	
299.80000	-0.0357	
300.00000	-0.0354	
300.20000	-0.0348	
300.40000	-0.0349	
300.60000	-0.0348	
300.80000	-0.0346	
301.00000	-0.0345	
301.20000	-0.0342	
301.40000	-0.0339	
301.60000	-0.0333	
301.80000	-0.0327	
302.00000	-0.0323	
302.20000	-0.0317	
302.40000	-0.0314	
302.60000	-0.0310	
302.80000	-0.0305	
303.00000	-0.0299	
303.20000	-0.0293	
303.40000	-0.0288	
303.60000	-0.0281	
303.80000	-0.0275	
304.00000	-0.0270	
304.20000	-0.0264	
304.40000	-0.0262	
304.60000	-0.0258	
304.80000	-0.0253	
305.00000	-0.0246	
305.20000	-0.0246	
305.40000	-0.0241	
305.60000	-0.0241	
305.80000	-0.0238	
306.00000	-0.0237	
306.20000	-0.0232	
306.40000	-0.0229	
306.60000	-0.0229	
306.80000	-0.0224	
307.00000	-0.0220	
307.20000	-0.0220	
307.40000	-0.0218	
307.60000	-0.0215	
307.80000	-0.0211	
308.00000	-0.0209	
308.20000	-0.0211	
308.40000	-0.0215	
308.60000	-0.0217	
308.80000	-0.0224	
309.00000	-0.0229	
309.20000	-0.0237	
309.40000	-0.0243	
309.60000	-0.0249	
309.80000	-0.0250	
310.00000	-0.0256	
310.20000	-0.0261	
310.40000	-0.0269	
310.60000	-0.0275	
310.80000	-0.0281	
311.00000	-0.0285	
311.20000	-0.0296	
311.40000	-0.0299	
311.60000	-0.0304	
311.80000	-0.0313	
312.00000	-0.0320	
312.20000	-0.0325	
312.40000	-0.0328	
312.60000	-0.0328	
312.80000	-0.0337	
313.00000	-0.0342	
313.20000	-0.0345	
313.40000	-0.0348	
313.60000	-0.0354	
313.80000	-0.0356	
314.00000	-0.0359	
314.20000	-0.0360	
314.40000	-0.0362	
314.60000	-0.0362	
314.80000	-0.0362	
315.00000	-0.0365	
315.20000	-0.0363	
315.40000	-0.0365	
315.60000	-0.0365	
315.80000	-0.0365	
316.00000	-0.0362	
316.20000	-0.0362	
316.40000	-0.0362	
316.60000	-0.0359	
316.80000	-0.0357	
317.00000	-0.0356	
317.20000	-0.0352	
317.40000	-0.0352	
317.60000	-0.0349	
317.80000	-0.0348	
318.00000	-0.0340	
318.20000	-0.0337	
318.40000	-0.0331	
318.60000	-0.0328	
318.80000	-0.0322	
319.00000	-0.0317	
319.20000	-0.0316	
319.40000	-0.0313	
319.60000	-0.0305	
319.80000	-0.0302	
320.00000	-0.0293	
320.20000	-0.0290	
320.40000	-0.0285	
320.60000	-0.0278	
320.80000	-0.0275	
321.00000	-0.0272	
321.20000	-0.0270	
321.40000	-0.0264	
321.60000	-0.0258	
321.80000	-0.0252	
322.00000	-0.0252	
322.20000	-0.0250	
322.40000	-0.0247	
322.60000	-0.0250	
322.80000	-0.0243	
323.00000	-0.0238	
323.20000	-0.0235	
323.40000	-0.0232	
323.60000	-0.0229	
323.80000	-0.0226	
324.00000	-0.0226	
324.20000	-0.0224	
324.40000	-0.0220	
324.60000	-0.0217	
324.80000	-0.0218	
325.00000	-0.0220	
325.20000	-0.0226	
325.40000	-0.0226	
325.60000	-0.0232	
325.80000	-0.0238	
326.00000	-0.0243	
326.20000	-0.0246	
326.40000	-0.0250	
326.60000	-0.0256	
326.80000	-0.0261	
327.00000	-0.0267	
327.20000	-0.0275	
327.40000	-0.0279	
327.60000	-0.0285	
327.80000	-0.0290	
328.00000	-0.0298	
328.20000	-0.0299	
328.40000	-0.0310	
328.60000	-0.0313	
328.80000	-0.0314	
329.00000	-0.0319	
329.20000	-0.0323	
329.40000	-0.0328	
329.60000	-0.0334	
329.80000	-0.0339	
330.00000	-0.0342	
330.20000	-0.0346	
330.40000	-0.0348	
330.60000	-0.0352	
330.80000	-0.0356	
331.00000	-0.0357	
331.20000	-0.0359	
331.40000	-0.0360	
331.60000	-0.0360	
331.80000	-0.0360	
332.00000	-0.0363	
332.20000	-0.0363	
332.40000	-0.0363	
332.60000	-0.0360	
332.80000	-0.0360	
333.00000	-0.0359	
333.20000	-0.0359	
333.40000	-0.0359	
333.60000	-0.0356	
333.80000	-0.0349	
334.00000	-0.0349	
334.20000	-0.0346	
334.40000	-0.0342	
334.60000	-0.0342	
334.80000	-0.0336	
335.00000	-0.0328	
335.20000	-0.0328	
335.40000	-0.0320	
335.60000	-0.0316	
335.80000	-0.0314	
336.00000	-0.0307	
336.20000	-0.0301	
336.40000	-0.0294	
336.60000	-0.0285	
336.80000	-0.0282	
337.00000	-0.0278	
337.20000	-0.0275	
337.40000	-0.0270	
337.60000	-0.0261	
337.80000	-0.0261	
338.00000	-0.0258	
338.20000	-0.0250	
338.40000	-0.0246	
338.60000	-0.0243	
338.80000	-0.0240	
339.00000	-0.0241	
339.20000	-0.0240	
339.40000	-0.0233	
339.60000	-0.0233	
339.80000	-0.0229	
340.00000	-0.0221	
340.20000	-0.0221	
340.40000	-0.0220	
340.60000	-0.0218	
340.80000	-0.0215	
341.00000	-0.0215	
341.20000	-0.0211	
341.40000	-0.0209	
341.60000	-0.0211	
341.80000	-0.0211	
342.00000	-0.0217	
342.20000	-0.0220	
342.40000	-0.0227	
342.60000	-0.0237	
342.80000	-0.0240	
343.00000	-0.0243	
343.20000	-0.0252	
343.40000	-0.0258	
343.60000	-0.0267	
343.80000	-0.0269	
344.00000	-0.0275	
344.20000	-0.0281	
344.40000	-0.0290	
344.60000	-0.0290	
344.80000	-0.0301	
345.00000	-0.0305	
345.20000	-0.0307	
345.40000	-0.0314	
345.60000	-0.0319	
345.80000	-0.0320	
346.00000	-0.0325	
346.20000	-0.0328	
346.40000	-0.0336	
346.60000	-0.0339	
346.80000	-0.0342	
347.00000	-0.0345	
347.20000	-0.0349	
347.40000	-0.0349	
347.60000	-0.0354	
347.80000	-0.0352	
348.00000	-0.0354	
348.20000	-0.0356	
348.40000	-0.0356	
348.60000	-0.0360	
348.80000	-0.0360	
349.00000	-0.0362	
349.20000	-0.0357	
349.40000	-0.0359	
349.60000	-0.0359	
349.80000	-0.0354	
350.00000	-0.0348	
350.20000	-0.0352	
350.40000	-0.0352	
350.60000	-0.0345	
350.80000	-0.0345	
351.00000	-0.0342	
351.20000	-0.0340	
351.40000	-0.0337	
351.60000	-0.0328	
351.80000	-0.0322	
352.00000	-0.0320	
352.20000	-0.0317	
352.40000	-0.0311	
352.60000	-0.0305	
352.80000	-0.0305	
353.00000	-0.0299	
353.20000	-0.0293	
353.40000	-0.0285	
353.60000	-0.0281	
353.80000	-0.0273	
354.00000	-0.0270	
354.20000	-0.0267	
354.40000	-0.0261	
354.60000	-0.0256	
354.80000	-0.0250	
355.00000	-0.0249	
355.20000	-0.0241	
355.40000	-0.0240	
355.60000	-0.0238	
355.80000	-0.0235	
356.00000	-0.0235	
356.20000	-0.0230	
356.40000	-0.0229	
356.60000	-0.0224	
356.80000	-0.0221	
357.00000	-0.0220	
357.20000	-0.0215	
357.40000	-0.0217	
357.60000	-0.0217	
357.80000	-0.0211	
358.00000	-0.0208	
358.20000	-0.0211	
358.40000	-0.0211	
358.60000	-0.0214	
358.80000	-0.0224	
359.00000	-0.0230	
359.20000	-0.0238	
359.40000	-0.0240	
359.60000	-0.0241	
359.80000	-0.0249	
360.00000	-0.0253	
360.20000	-0.0259	
360.40000	-0.0267	
360.60000	-0.0272	
360.80000	-0.0279	
361.00000	-0.0288	
361.20000	-0.0293	
361.40000	-0.0299	
361.60000	-0.0304	
361.80000	-0.0310	
362.00000	-0.0314	
362.20000	-0.0314	
362.40000	-0.0317	
362.60000	-0.0325	
362.80000	-0.0333	
363.00000	-0.0331	
363.20000	-0.0334	
363.40000	-0.0340	
363.60000	-0.0343	
363.80000	-0.0342	
364.00000	-0.0349	
364.20000	-0.0352	
364.40000	-0.0356	
364.60000	-0.0356	
364.80000	-0.0357	
365.00000	-0.0357	
365.20000	-0.0359	
365.40000	-0.0360	
365.60000	-0.0362	
365.80000	-0.0359	
366.00000	-0.0359	
366.20000	-0.0357	
366.40000	-0.0359	
366.60000	-0.0357	
366.80000	-0.0349	
367.00000	-0.0349	
367.20000	-0.0349	
367.40000	-0.0345	
367.60000	-0.0342	
367.80000	-0.0342	
368.00000	-0.0337	
368.20000	-0.0333	
368.40000	-0.0327	
368.60000	-0.0323	
368.80000	-0.0320	
369.00000	-0.0316	
369.20000	-0.0310	
369.40000	-0.0307	
369.60000	-0.0302	
369.80000	-0.0294	
370.00000	-0.0290	
370.20000	-0.0284	
370.40000	-0.0276	
370.60000	-0.0272	
370.80000	-0.0269	
371.00000	-0.0264	
371.20000	-0.0262	
371.40000	-0.0258	
371.60000	-0.0252	
371.80000	-0.0249	
372.00000	-0.0246	
372.20000	-0.0243	
372.40000	-0.0241	
372.60000	-0.0241	
372.80000	-0.0238	
373.00000	-0.0229	
373.20000	-0.0227	
373.40000	-0.0229	
373.60000	-0.0220	
373.80000	-0.0221	
374.00000	-0.0221	
374.20000	-0.0218	
374.40000	-0.0217	
374.60000	-0.0214	
374.80000	-0.0215	
375.00000	-0.0215	
375.20000	-0.0218	
375.40000	-0.0226	
375.60000	-0.0229	
375.80000	-0.0233	
376.00000	-0.0240	
376.20000	-0.0247	
376.40000	-0.0249	
376.60000	-0.0253	
376.80000	-0.0259	
377.00000	-0.0267	
377.20000	-0.0276	
377.40000	-0.0279	
377.60000	-0.0282	
377.80000	-0.0290	
378.00000	-0.0294	
378.20000	-0.0299	
378.40000	-0.0310	
378.60000	-0.0311	
378.80000	-0.0314	
379.00000	-0.0319	
379.20000	-0.0322	
379.40000	-0.0328	
379.60000	-0.0333	
379.80000	-0.0340	
380.00000	-0.0343	
380.20000	-0.0346	
380.40000	-0.0348	
380.60000	-0.0352	
380.80000	-0.0354	
381.00000	-0.0356	
381.20000	-0.0359	
381.40000	-0.0359	
381.60000	-0.0362	
381.80000	-0.0365	
382.00000	-0.0363	
382.20000	-0.0368	
382.40000	-0.0365	
382.60000	-0.0365	
382.80000	-0.0363	
383.00000	-0.0362	
383.20000	-0.0362	
383.40000	-0.0356	
383.60000	-0.0354	
383.80000	-0.0354	
384.00000	-0.0352	
384.20000	-0.0348	
384.40000	-0.0346	
384.60000	-0.0342	
384.80000	-0.0339	
385.00000	-0.0333	
385.20000	-0.0328	
385.40000	-0.0325	
385.60000	-0.0317	
385.80000	-0.0316	
386.00000	-0.0311	
386.20000	-0.0305	
386.40000	-0.0299	
386.60000	-0.0294	
386.80000	-0.0288	
387.00000	-0.0282	
387.20000	-0.0279	
387.40000	-0.0276	
387.60000	-0.0270	
387.80000	-0.0269	
388.00000	-0.0262	
388.20000	-0.0259	
388.40000	-0.0252	
388.60000	-0.0250	
388.80000	-0.0247	
389.00000	-0.0252	
389.20000	-0.0249	
389.40000	-0.0241	
389.60000	-0.0238	
389.80000	-0.0235	
390.00000	-0.0235	
390.20000	-0.0229	
390.40000	-0.0229	
390.60000	-0.0226	
390.80000	-0.0227	
391.00000	-0.0221	
391.20000	-0.0218	
391.40000	-0.0218	
391.60000	-0.0221	
391.80000	-0.0224	
392.00000	-0.0226	
392.20000	-0.0230	
392.40000	-0.0237	
392.60000	-0.0240	
392.80000	-0.0247	
393.00000	-0.0250	
393.20000	-0.0258	
393.40000	-0.0261	
393.60000	-0.0269	
393.80000	-0.0273	
394.00000	-0.0281	
394.20000	-0.0288	
394.40000	-0.0294	
394.60000	-0.0299	
394.80000	-0.0305	
395.00000	-0.0313	
395.20000	-0.0317	
395.40000	-0.0322	
395.60000	-0.0325	
395.80000	-0.0333	
396.00000	-0.0337	
396.20000	-0.0340	
396.40000	-0.0342	
396.60000	-0.0348	
396.80000	-0.0349	
397.00000	-0.0352	
397.20000	-0.0356	
397.40000	-0.0360	
397.60000	-0.0360	
397.80000	-0.0363	
398.00000	-0.0365	
398.20000	-0.0366	
398.40000	-0.0363	
398.60000	-0.0366	
398.80000	-0.0368	
399.00000	-0.0368	
399.20000	-0.0366	
399.40000	-0.0362	
399.60000	-0.0366	
399.80000	-0.0365	
400.00000	-0.0362	
400.20000	-0.0362	
400.40000	-0.0360	
400.60000	-0.0359	
400.80000	-0.0356	
401.00000	-0.0354	
401.20000	-0.0348	
401.40000	-0.0342	
401.60000	-0.0339	
401.80000	-0.0334	
402.00000	-0.0328	
402.20000	-0.0323	
402.40000	-0.0320	
402.60000	-0.0317	
402.80000	-0.0313	
403.00000	-0.0307	
403.20000	-0.0299	
403.40000	-0.0294	
403.60000	-0.0290	
403.80000	-0.0281	
404.00000	-0.0279	
404.20000	-0.0275	
404.40000	-0.0272	
404.60000	-0.0269	
404.80000	-0.0264	
405.00000	-0.0258	
405.20000	-0.0253	
405.40000	-0.0253	
405.60000	-0.0255	
405.80000	-0.0253	
406.00000	-0.0250	
406.20000	-0.0246	
406.40000	-0.0241	
406.60000	-0.0238	
406.80000	-0.0235	
407.00000	-0.0235	
407.20000	-0.0230	
407.40000	-0.0230	
407.60000	-0.0229	
407.80000	-0.0221	
408.00000	-0.0224	
408.20000	-0.0226	
408.40000	-0.0226	
408.60000	-0.0232	
408.80000	-0.0237	
409.00000	-0.0238	
409.20000	-0.0243	
409.40000	-0.0250	
409.60000	-0.0258	
409.80000	-0.0261	
410.00000	-0.0269	
410.20000	-0.0276	
410.40000	-0.0279	
410.60000	-0.0285	
410.80000	-0.0294	
411.00000	-0.0299	
411.20000	-0.0302	
411.40000	-0.0305	
411.60000	-0.0316	
411.80000	-0.0319	
412.00000	-0.0322	
412.20000	-0.0328	
412.40000	-0.0328	
412.60000	-0.0336	
412.80000	-0.0340	
413.00000	-0.0342	
413.20000	-0.0349	
413.40000	-0.0356	
413.60000	-0.0354	
413.80000	-0.0356	
414.00000	-0.0360	
414.20000	-0.0365	
414.40000	-0.0365	
414.60000	-0.0365	
414.80000	-0.0363	
415.00000	-0.0366	
415.20000	-0.0368	
415.40000	-0.0368	
415.60000	-0.0369	
415.80000	-0.0368	
416.00000	-0.0368	
416.20000	-0.0366	
416.40000	-0.0365	
416.60000	-0.0362	
416.80000	-0.0360	
417.00000	-0.0362	
417.20000	-0.0362	
417.40000	-0.0356	
417.60000	-0.0352	
417.80000	-0.0349	
418.00000	-0.0346	
418.20000	-0.0342	
418.40000	-0.0339	
418.60000	-0.0334	
418.80000	-0.0323	
419.00000	-0.0323	
419.20000	-0.0317	
419.40000	-0.0313	
419.60000	-0.0307	
419.80000	-0.0301	
420.00000	-0.0296	
420.20000	-0.0290	
420.40000	-0.0282	
420.60000	-0.0278	
420.80000	-0.0275	
421.00000	-0.0270	
421.20000	-0.0267	
421.40000	-0.0261	
421.60000	-0.0255	
421.80000	-0.0250	
422.00000	-0.0249	
422.20000	-0.0249	
422.40000	-0.0243	
422.60000	-0.0246	
422.80000	-0.0238	
423.00000	-0.0235	
423.20000	-0.0230	
423.40000	-0.0230	
423.60000	-0.0229	
423.80000	-0.0229	
424.00000	-0.0224	
424.20000	-0.0224	
424.40000	-0.0221	
424.60000	-0.0217	
424.80000	-0.0217	
425.00000	-0.0218	
425.20000	-0.0221	
425.40000	-0.0230	
425.60000	-0.0230	
425.80000	-0.0240	
426.00000	-0.0247	
426.20000	-0.0252	
426.40000	-0.0255	
426.60000	-0.0261	
426.80000	-0.0270	
427.00000	-0.0276	
427.20000	-0.0279	
427.40000	-0.0285	
427.60000	-0.0293	
427.80000	-0.0298	
428.00000	-0.0305	
428.20000	-0.0310	
428.40000	-0.0313	
428.60000	-0.0316	
428.80000	-0.0319	
429.00000	-0.0323	
429.20000	-0.0328	
429.40000	-0.0334	
429.60000	-0.0339	
429.80000	-0.0342	
430.00000	-0.0345	
430.20000	-0.0352	
430.40000	-0.0349	
430.60000	-0.0356	
430.80000	-0.0357	
431.00000	-0.0360	
431.20000	-0.0362	
431.40000	-0.0363	
431.60000	-0.0362	
431.80000	-0.0365	
432.00000	-0.0363	
432.20000	-0.0365	
432.40000	-0.0365	
432.60000	-0.0362	
432.80000	-0.0360	
433.00000	-0.0362	
433.20000	-0.0359	
433.40000	-0.0359	
433.60000	-0.0357	
433.80000	-0.0359	
434.00000	-0.0354	
434.20000	-0.0354	
434.40000	-0.0348	
434.60000	-0.0346	
434.80000	-0.0339	
435.00000	-0.0334	
435.20000	-0.0328	
435.40000	-0.0325	
435.60000	-0.0322	
435.80000	-0.0319	
436.00000	-0.0313	
436.20000	-0.0307	
436.40000	-0.0301	
436.60000	-0.0294	
436.80000	-0.0288	
437.00000	-0.0288	
437.20000	-0.0281	
437.40000	-0.0275	
437.60000	-0.0273	
437.80000	-0.0267	
438.00000	-0.0264	
438.20000	-0.0256	
438.40000	-0.0255	
438.60000	-0.0250	
438.80000	-0.0249	
439.00000	-0.0247	
439.20000	-0.0249	
439.40000	-0.0241	
439.60000	-0.0238	
439.80000	-0.0235	
440.00000	-0.0235	
440.20000	-0.0232	
440.40000	-0.0226	
440.60000	-0.0227	
440.80000	-0.0227	
441.00000	-0.0227	
441.20000	-0.0221	
441.40000	-0.0221	
441.60000	-0.0226	
441.80000	-0.0230	
442.00000	-0.0232	
442.20000	-0.0240	
442.40000	-0.0243	
442.60000	-0.0250	
442.80000	-0.0256	
443.00000	-0.0261	
443.20000	-0.0264	
443.40000	-0.0273	
443.60000	-0.0276	
443.80000	-0.0284	
444.00000	-0.0288	
444.20000	-0.0294	
444.40000	-0.0298	
444.60000	-0.0307	
444.80000	-0.0307	
445.00000	-0.0313	
445.20000	-0.0317	
445.40000	-0.0322	
445.60000	-0.0325	
445.80000	-0.0331	
446.00000	-0.0336	
446.20000	-0.0342	
446.40000	-0.0345	
446.60000	-0.0348	
446.80000	-0.0356	
447.00000	-0.0357	
447.20000	-0.0357	
447.40000	-0.0360	
447.60000	-0.0362	
447.80000	-0.0362	
448.00000	-0.0365	
448.20000	-0.0365	
448.40000	-0.0366	
448.60000	-0.0366	
448.80000	-0.0368	
449.00000	-0.0366	
449.20000	-0.0368	
449.40000	-0.0365	
449.60000	-0.0363	
449.80000	-0.0365	
450.00000	-0.0362	
450.20000	-0.0360	
450.40000	-0.0359	
450.60000	-0.0356	
450.80000	-0.0352	
451.00000	-0.0352	
451.20000	-0.0345	
451.40000	-0.0340	
451.60000	-0.0339	
451.80000	-0.0336	
452.00000	-0.0327	
452.20000	-0.0322	
452.40000	-0.0319	
452.60000	-0.0313	
452.80000	-0.0307	
453.00000	-0.0302	
453.20000	-0.0294	
453.40000	-0.0290	
453.60000	-0.0284	
453.80000	-0.0276	
454.00000	-0.0275	
454.20000	-0.0270	
454.40000	-0.0264	
454.60000	-0.0262	
454.80000	-0.0261	
455.00000	-0.0255	
455.20000	-0.0252	
455.40000	-0.0252	
455.60000	-0.0247	
455.80000	-0.0247	
456.00000	-0.0243	
456.20000	-0.0241	
456.40000	-0.0235	
456.60000	-0.0232	
456.80000	-0.0232	
457.00000	-0.0229	
457.20000	-0.0230	
457.40000	-0.0229	
457.60000	-0.0226	
457.80000	-0.0220	
458.00000	-0.0220	
458.20000	-0.0224	
458.40000	-0.0224	
458.60000	-0.0229	
458.80000	-0.0230	
459.00000	-0.0240	
459.20000	-0.0243	
459.40000	-0.0250	
459.60000	-0.0256	
459.80000	-0.0261	
460.00000	-0.0270	
460.20000	-0.0273	
460.40000	-0.0284	
460.60000	-0.0288	
460.80000	-0.0296	
461.00000	-0.0302	
461.20000	-0.0310	
461.40000	-0.0316	
461.60000	-0.0319	
461.80000	-0.0319	
462.00000	-0.0323	
462.20000	-0.0327	
462.40000	-0.0331	
462.60000	-0.0336	
462.80000	-0.0339	
463.00000	-0.0342	
463.20000	-0.0349	
463.40000	-0.0348	
463.60000	-0.0354	
463.80000	-0.0357	
464.00000	-0.0359	
464.20000	-0.0362	
464.40000	-0.0363	
464.60000	-0.0368	
464.80000	-0.0368	
465.00000	-0.0369	
465.20000	-0.0377	
465.40000	-0.0375	
465.60000	-0.0375	
465.80000	-0.0372	
466.00000	-0.0375	
466.20000	-0.0368	
466.40000	-0.0366	
466.60000	-0.0365	
466.80000	-0.0363	
467.00000	-0.0360	
467.20000	-0.0360	
467.40000	-0.0357	
467.60000	-0.0356	
467.80000	-0.0354	
468.00000	-0.0348	
468.20000	-0.0342	
468.40000	-0.0339	
468.60000	-0.0334	
468.80000	-0.0323	
469.00000	-0.0323	
469.20000	-0.0319	
469.40000	-0.0313	
469.60000	-0.0310	
469.80000	-0.0302	
470.00000	-0.0298	
470.20000	-0.0293	
470.40000	-0.0285	
470.60000	-0.0281	
470.80000	-0.0276	
471.00000	-0.0275	
471.20000	-0.0270	
471.40000	-0.0262	
471.60000	-0.0259	
471.80000	-0.0256	
472.00000	-0.0252	
472.20000	-0.0253	
472.40000	-0.0250	
472.60000	-0.0249	
472.80000	-0.0249	
473.00000	-0.0241	
473.20000	-0.0240	
473.40000	-0.0237	
473.60000	-0.0235	
473.80000	-0.0235	
474.00000	-0.0230	
474.20000	-0.0230	
474.40000	-0.0229	
474.60000	-0.0221	
474.80000	-0.0221	
475.00000	-0.0226	
475.20000	-0.0230	
475.40000	-0.0238	
475.60000	-0.0246	
475.80000	-0.0249	
476.00000	-0.0256	
476.20000	-0.0259	
476.40000	-0.0269	
476.60000	-0.0272	
476.80000	-0.0281	
477.00000	-0.0284	
477.20000	-0.0288	
477.40000	-0.0293	
477.60000	-0.0299	
477.80000	-0.0304	
478.00000	-0.0310	
478.20000	-0.0316	
478.40000	-0.0320	
478.60000	-0.0322	
478.80000	-0.0325	
479.00000	-0.0334	
479.20000	-0.0337	
479.40000	-0.0342	
479.60000	-0.0345	
479.80000	-0.0346	
480.00000	-0.0349	
480.20000	-0.0356	
480.40000	-0.0356	
480.60000	-0.0360	
480.80000	-0.0363	
481.00000	-0.0362	
481.20000	-0.0368	
481.40000	-0.0365	
481.60000	-0.0368	
481.80000	-0.0368	
482.00000	-0.0369	
482.20000	-0.0372	
482.40000	-0.0369	
482.60000	-0.0369	
482.80000	-0.0372	
483.00000	-0.0368	
483.20000	-0.0363	
483.40000	-0.0365	
483.60000	-0.0362	
483.80000	-0.0359	
484.00000	-0.0357	
484.20000	-0.0356	
484.40000	-0.0352	
484.60000	-0.0346	
484.80000	-0.0345	
485.00000	-0.0340	
485.20000	-0.0336	
485.40000	-0.0331	
485.60000	-0.0325	
485.80000	-0.0320	
486.00000	-0.0316	
486.20000	-0.0313	
486.40000	-0.0305	
486.60000	-0.0305	
486.80000	-0.0298	
487.00000	-0.0298	
487.20000	-0.0293	
487.40000	-0.0294	
487.60000	-0.0291	
487.80000	-0.0288	
488.00000	-0.0284	
488.20000	-0.0278	
488.40000	-0.0273	
488.60000	-0.0264	
488.80000	-0.0264	
489.00000	-0.0261	
489.20000	-0.0258	
489.40000	-0.0256	
489.60000	-0.0255	
489.80000	-0.0247	
490.00000	-0.0246	
490.20000	-0.0243	
490.40000	-0.0240	
490.60000	-0.0241	
490.80000	-0.0240	
491.00000	-0.0235	
491.20000	-0.0230	
491.40000	-0.0232	
491.60000	-0.0233	
491.80000	-0.0232	
492.00000	-0.0238	
492.20000	-0.0243	
492.40000	-0.0247	
492.60000	-0.0253	
492.80000	-0.0256	
493.00000	-0.0261	
493.20000	-0.0269	
493.40000	-0.0276	
493.60000	-0.0285	
493.80000	-0.0290	
494.00000	-0.0294	
494.20000	-0.0305	
494.40000	-0.0314	
494.60000	-0.0319	
494.80000	-0.0322	
495.00000	-0.0327	
495.20000	-0.0328	
495.40000	-0.0331	
495.60000	-0.0334	
495.80000	-0.0339	
496.00000	-0.0343	
496.20000	-0.0349	
496.40000	-0.0352	
496.60000	-0.0359	
496.80000	-0.0360	
497.00000	-0.0359	
497.20000	-0.0365	
497.40000	-0.0366	
497.60000	-0.0365	
497.80000	-0.0369	
498.00000	-0.0369	
498.20000	-0.0368	
498.40000	-0.0372	
498.60000	-0.0369	
498.80000	-0.0368	
499.00000	-0.0372	
499.20000	-0.0372	
499.40000	-0.0368	
499.60000	-0.0368	
499.80000	-0.0368	
500.00000	-0.0365	
500.20000	-0.0362	
500.40000	-0.0362	
500.60000	-0.0359	
500.80000	-0.0356	
501.00000	-0.0349	
501.20000	-0.0354	
501.40000	-0.0348	
501.60000	-0.0342	
501.80000	-0.0336	
502.00000	-0.0334	
502.20000	-0.0328	
502.40000	-0.0325	
502.60000	-0.0320	
502.80000	-0.0317	
503.00000	-0.0313	
503.20000	-0.0304	
503.40000	-0.0299	
503.60000	-0.0294	
503.80000	-0.0291	
504.00000	-0.0282	
504.20000	-0.0281	
504.40000	-0.0276	
504.60000	-0.0275	
504.80000	-0.0269	
505.00000	-0.0262	
505.20000	-0.0256	
505.40000	-0.0256	
505.60000	-0.0258	
505.80000	-0.0259	
506.00000	-0.0258	
506.20000	-0.0256	
506.40000	-0.0256	
506.60000	-0.0253	
506.80000	-0.0255	
507.00000	-0.0250	
507.20000	-0.0252	
507.40000	-0.0243	
507.60000	-0.0238	
507.80000	-0.0233	
508.00000	-0.0235	
508.20000	-0.0237	
508.40000	-0.0235	
508.60000	-0.0238	
508.80000	-0.0241	
509.00000	-0.0252	
509.20000	-0.0255	
509.40000	-0.0258	
509.60000	-0.0262	
509.80000	-0.0267	
510.00000	-0.0272	
510.20000	-0.0276	
510.40000	-0.0282	
510.60000	-0.0288	
510.80000	-0.0293	
511.00000	-0.0301	
511.20000	-0.0304	
511.40000	-0.0313	
511.60000	-0.0319	
511.80000	-0.0325	
512.00000	-0.0323	
512.20000	-0.0331	
512.40000	-0.0331	
512.60000	-0.0336	
512.80000	-0.0340	
513.00000	-0.0345	
513.20000	-0.0349	
513.40000	-0.0352	
513.60000	-0.0356	
513.80000	-0.0359	
514.00000	-0.0360	
514.20000	-0.0365	
514.40000	-0.0368	
514.60000	-0.0366	
514.80000	-0.0368	
515.00000	-0.0374	
515.20000	-0.0374	
515.40000	-0.0372	
515.60000	-0.0374	
515.80000	-0.0372	
516.00000	-0.0369	
516.20000	-0.0366	
516.40000	-0.0366	
516.60000	-0.0363	
516.80000	-0.0363	
517.00000	-0.0359	
517.20000	-0.0356	
517.40000	-0.0357	
517.60000	-0.0352	
517.80000	-0.0346	
518.00000	-0.0345	
518.20000	-0.0340	
518.40000	-0.0336	
518.60000	-0.0328	
518.80000	-0.0325	
519.00000	-0.0323	
519.20000	-0.0319	
519.40000	-0.0313	
519.60000	-0.0313	
519.80000	-0.0304	
520.00000	-0.0299	
520.20000	-0.0296	
520.40000	-0.0288	
520.60000	-0.0285	
520.80000	-0.0279	
521.00000	-0.0275	
521.20000	-0.0273	
521.40000	-0.0262	
521.60000	-0.0259	
521.80000	-0.0258	
522.00000	-0.0252	
522.20000	-0.0252	
522.40000	-0.0252	
522.60000	-0.0250	
522.80000	-0.0249	
523.00000	-0.0247	
523.20000	-0.0243	
523.40000	-0.0238	
523.60000	-0.0233	
523.80000	-0.0229	
524.00000	-0.0227	
524.20000	-0.0229	
524.40000	-0.0221	
524.60000	-0.0220	
524.80000	-0.0221	
525.00000	-0.0221	
525.20000	-0.0226	
525.40000	-0.0230	
525.60000	-0.0238	
525.80000	-0.0238	
526.00000	-0.0241	
526.20000	-0.0252	
526.40000	-0.0253	
526.60000	-0.0259	
526.80000	-0.0264	
527.00000	-0.0269	
527.20000	-0.0275	
527.40000	-0.0279	
527.60000	-0.0288	
527.80000	-0.0293	
528.00000	-0.0301	
528.20000	-0.0301	
528.40000	-0.0307	
528.60000	-0.0310	
528.80000	-0.0313	
529.00000	-0.0319	
529.20000	-0.0322	
529.40000	-0.0328	
529.60000	-0.0336	
529.80000	-0.0337	
530.00000	-0.0340	
530.20000	-0.0345	
530.40000	-0.0348	
530.60000	-0.0348	
530.80000	-0.0357	
531.00000	-0.0356	
531.20000	-0.0356	
531.40000	-0.0359	
531.60000	-0.0357	
531.80000	-0.0360	
532.00000	-0.0362	
532.20000	-0.0360	
532.40000	-0.0362	
532.60000	-0.0362	
532.80000	-0.0360	
533.00000	-0.0357	
533.20000	-0.0352	
533.40000	-0.0354	
533.60000	-0.0352	
533.80000	-0.0346	
534.00000	-0.0346	
534.20000	-0.0342	
534.40000	-0.0336	
534.60000	-0.0334	
534.80000	-0.0333	
535.00000	-0.0327	
535.20000	-0.0320	
535.40000	-0.0316	
535.60000	-0.0313	
535.80000	-0.0305	
536.00000	-0.0302	
536.20000	-0.0296	
536.40000	-0.0288	
536.60000	-0.0284	
536.80000	-0.0276	
537.00000	-0.0270	
537.20000	-0.0269	
537.40000	-0.0264	
537.60000	-0.0258	
537.80000	-0.0259	
538.00000	-0.0253	
538.20000	-0.0246	
538.40000	-0.0243	
538.60000	-0.0241	
538.80000	-0.0241	
539.00000	-0.0240	
539.20000	-0.0240	
539.40000	-0.0240	
539.60000	-0.0237	
539.80000	-0.0237	
540.00000	-0.0237	
540.20000	-0.0232	
540.40000	-0.0230	
540.60000	-0.0227	
540.80000	-0.0221	
541.00000	-0.0220	
541.20000	-0.0217	
541.40000	-0.0218	
541.60000	-0.0217	
541.80000	-0.0220	
542.00000	-0.0220	
542.20000	-0.0227	
542.40000	-0.0230	
542.60000	-0.0238	
542.80000	-0.0243	
543.00000	-0.0249	
543.20000	-0.0255	
543.40000	-0.0261	
543.60000	-0.0264	
543.80000	-0.0272	
544.00000	-0.0276	
544.20000	-0.0284	
544.40000	-0.0290	
544.60000	-0.0293	
544.80000	-0.0299	
545.00000	-0.0302	
545.20000	-0.0307	
545.40000	-0.0310	
545.60000	-0.0311	
545.80000	-0.0316	
546.00000	-0.0322	
546.20000	-0.0322	
546.40000	-0.0331	
546.60000	-0.0336	
546.80000	-0.0337	
547.00000	-0.0339	
547.20000	-0.0340	
547.40000	-0.0342	
547.60000	-0.0342	
547.80000	-0.0345	
548.00000	-0.0346	
548.20000	-0.0346	
548.40000	-0.0348	
548.60000	-0.0356	
548.80000	-0.0354	
549.00000	-0.0354	
549.20000	-0.0354	
549.40000	-0.0352	
549.60000	-0.0349	
549.80000	-0.0348	
550.00000	-0.0345	
550.20000	-0.0342	
550.40000	-0.0340	
550.60000	-0.0339	
550.80000	-0.0336	
551.00000	-0.0334	
551.20000	-0.0334	
551.40000	-0.0323	
551.60000	-0.0323	
551.80000	-0.0319	
552.00000	-0.0311	
552.20000	-0.0307	
552.40000	-0.0302	
552.60000	-0.0296	
552.80000	-0.0291	
553.00000	-0.0290	
553.20000	-0.0281	
553.40000	-0.0276	
553.60000	-0.0272	
553.80000	-0.0270	
554.00000	-0.0261	
554.20000	-0.0262	
554.40000	-0.0258	
554.60000	-0.0253	
554.80000	-0.0247	
555.00000	-0.0241	
555.20000	-0.0240	
555.40000	-0.0237	
555.60000	-0.0240	
555.80000	-0.0237	
556.00000	-0.0232	
556.20000	-0.0230	
556.40000	-0.0232	
556.60000	-0.0229	
556.80000	-0.0226	
557.00000	-0.0220	
557.20000	-0.0218	
557.40000	-0.0217	
557.60000	-0.0215	
557.80000	-0.0211	
558.00000	-0.0208	
558.20000	-0.0209	
558.40000	-0.0212	
558.60000	-0.0215	
558.80000	-0.0220	
559.00000	-0.0224	
559.20000	-0.0230	
559.40000	-0.0238	
559.60000	-0.0241	
559.80000	-0.0247	
560.00000	-0.0250	
560.20000	-0.0259	
560.40000	-0.0261	
560.60000	-0.0269	
560.80000	-0.0275	
561.00000	-0.0279	
561.20000	-0.0285	
561.40000	-0.0293	
561.60000	-0.0296	
561.80000	-0.0302	
562.00000	-0.0304	
562.20000	-0.0310	
562.40000	-0.0313	
562.60000	-0.0317	
562.80000	-0.0322	
563.00000	-0.0328	
563.20000	-0.0328	
563.40000	-0.0333	
563.60000	-0.0333	
563.80000	-0.0334	
564.00000	-0.0339	
564.20000	-0.0340	
564.40000	-0.0342	
564.60000	-0.0342	
564.80000	-0.0345	
565.00000	-0.0348	
565.20000	-0.0346	
565.40000	-0.0348	
565.60000	-0.0349	
565.80000	-0.0348	
566.00000	-0.0346	
566.20000	-0.0346	
566.40000	-0.0343	
566.60000	-0.0342	
566.80000	-0.0339	
567.00000	-0.0336	
567.20000	-0.0337	
567.40000	-0.0334	
567.60000	-0.0331	
567.80000	-0.0327	
568.00000	-0.0322	
568.20000	-0.0317	
568.40000	-0.0314	
568.60000	-0.0310	
568.80000	-0.0305	
569.00000	-0.0301	
569.20000	-0.0294	
569.40000	-0.0294	
569.60000	-0.0288	
569.80000	-0.0281	
570.00000	-0.0275	
570.20000	-0.0272	
570.40000	-0.0270	
570.60000	-0.0262	
570.80000	-0.0256	
571.00000	-0.0253	
571.20000	-0.0252	
571.40000	-0.0246	
571.60000	-0.0241	
571.80000	-0.0235	
572.00000	-0.0235	
572.20000	-0.0235	
572.40000	-0.0232	
572.60000	-0.0229	
572.80000	-0.0233	
573.00000	-0.0232	
573.20000	-0.0227	
573.40000	-0.0227	
573.60000	-0.0221	
573.80000	-0.0220	
574.00000	-0.0218	
574.20000	-0.0214	
574.40000	-0.0212	
574.60000	-0.0209	
574.80000	-0.0214	
575.00000	-0.0212	
575.20000	-0.0215	
575.40000	-0.0220	
575.60000	-0.0224	
575.80000	-0.0230	
576.00000	-0.0237	
576.20000	-0.0243	
576.40000	-0.0246	
576.60000	-0.0250	
576.80000	-0.0258	
577.00000	-0.0259	
577.20000	-0.0264	
577.40000	-0.0273	
577.60000	-0.0276	
577.80000	-0.0281	
578.00000	-0.0284	
578.20000	-0.0294	
578.40000	-0.0296	
578.60000	-0.0302	
578.80000	-0.0302	
579.00000	-0.0307	
579.20000	-0.0311	
579.40000	-0.0317	
579.60000	-0.0320	
579.80000	-0.0323	
580.00000	-0.0327	
580.20000	-0.0328	
580.40000	-0.0328	
580.60000	-0.0333	
580.80000	-0.0339	
581.00000	-0.0339	
581.20000	-0.0340	
581.40000	-0.0343	
581.60000	-0.0345	
581.80000	-0.0345	
582.00000	-0.0343	
582.20000	-0.0343	
582.40000	-0.0345	
582.60000	-0.0342	
582.80000	-0.0340	
583.00000	-0.0342	
583.20000	-0.0337	
583.40000	-0.0337	
583.60000	-0.0334	
583.80000	-0.0334	
584.00000	-0.0331	
584.20000	-0.0327	
584.40000	-0.0320	
584.60000	-0.0319	
584.80000	-0.0313	
585.00000	-0.0305	
585.20000	-0.0304	
585.40000	-0.0299	
585.60000	-0.0298	
585.80000	-0.0291	
586.00000	-0.0288	
586.20000	-0.0284	
586.40000	-0.0279	
586.60000	-0.0270	
586.80000	-0.0270	
587.00000	-0.0259	
587.20000	-0.0256	
587.40000	-0.0255	
587.60000	-0.0249	
587.80000	-0.0249	
588.00000	-0.0243	
588.20000	-0.0237	
588.40000	-0.0233	
588.60000	-0.0232	
588.80000	-0.0229	
589.00000	-0.0229	
589.20000	-0.0232	
589.40000	-0.0229	
589.60000	-0.0226	
589.80000	-0.0224	
590.00000	-0.0224	
590.20000	-0.0217	
590.40000	-0.0214	
590.60000	-0.0214	
590.80000	-0.0209	
591.00000	-0.0206	
591.20000	-0.0208	
591.40000	-0.0204	
591.60000	-0.0204	
591.80000	-0.0209	
592.00000	-0.0212	
592.20000	-0.0215	
592.40000	-0.0221	
592.60000	-0.0227	
592.80000	-0.0230	
593.00000	-0.0237	
593.20000	-0.0243	
593.40000	-0.0249	
593.60000	-0.0256	
593.80000	-0.0261	
594.00000	-0.0269	
594.20000	-0.0275	
594.40000	-0.0279	
594.60000	-0.0284	
594.80000	-0.0291	
595.00000	-0.0293	
595.20000	-0.0296	
595.40000	-0.0298	
595.60000	-0.0299	
595.80000	-0.0302	
596.00000	-0.0305	
596.20000	-0.0313	
596.40000	-0.0316	
596.60000	-0.0320	
596.80000	-0.0325	
597.00000	-0.0323	
597.20000	-0.0327	
597.40000	-0.0328	
597.60000	-0.0328	
597.80000	-0.0333	
598.00000	-0.0333	
598.20000	-0.0333	
598.40000	-0.0333	
598.60000	-0.0333	
598.80000	-0.0333	
599.00000	-0.0334	
599.20000	-0.0334	
599.40000	-0.0333	
599.60000	-0.0333	
599.80000	-0.0328	
600.00000	-0.0325	
600.20000	-0.0325	
600.40000	-0.0322	
600.60000	-0.0320	
600.80000	-0.0316	
601.00000	-0.0314	
601.20000	-0.0311	
601.40000	-0.0305	
601.60000	-0.0302	
601.80000	-0.0298	
602.00000	-0.0296	
602.20000	-0.0293	
602.40000	-0.0288	
602.60000	-0.0282	
602.80000	-0.0278	
603.00000	-0.0273	
603.20000	-0.0267	
603.40000	-0.0262	
603.60000	-0.0256	
603.80000	-0.0255	
604.00000	-0.0247	
604.20000	-0.0246	
604.40000	-0.0243	
604.60000	-0.0240	
604.80000	-0.0230	
605.00000	-0.0227	
605.20000	-0.0221	
605.40000	-0.0221	
605.60000	-0.0227	
605.80000	-0.0224	
606.00000	-0.0218	
606.20000	-0.0221	
606.40000	-0.0218	
606.60000	-0.0215	
606.80000	-0.0211	
607.00000	-0.0209	
607.20000	-0.0208	
607.40000	-0.0204	
607.60000	-0.0203	
607.80000	-0.0197	
608.00000	-0.0197	
608.20000	-0.0197	
608.40000	-0.0197	
608.60000	-0.0200	
608.80000	-0.0204	
609.00000	-0.0211	
609.20000	-0.0215	
609.40000	-0.0218	
609.60000	-0.0221	
609.80000	-0.0227	
610.00000	-0.0233	
610.20000	-0.0238	
610.40000	-0.0243	
610.60000	-0.0249	
610.80000	-0.0253	
611.00000	-0.0256	
611.20000	-0.0259	
611.40000	-0.0267	
611.60000	-0.0272	
611.80000	-0.0276	
612.00000	-0.0279	
612.20000	-0.0284	
612.40000	-0.0290	
612.60000	-0.0293	
612.80000	-0.0299	
613.00000	-0.0304	
613.20000	-0.0305	
613.40000	-0.0310	
613.60000	-0.0313	
613.80000	-0.0316	
614.00000	-0.0319	
614.20000	-0.0319	
614.40000	-0.0319	
614.60000	-0.0322	
614.80000	-0.0322	
615.00000	-0.0325	
615.20000	-0.0325	
615.40000	-0.0328	
615.60000	-0.0327	
615.80000	-0.0325	
616.00000	-0.0322	
616.20000	-0.0328	
616.40000	-0.0320	
616.60000	-0.0319	
616.80000	-0.0319	
617.00000	-0.0316	
617.20000	-0.0314	
617.40000	-0.0311	
617.60000	-0.0307	
617.80000	-0.0305	
618.00000	-0.0301	
618.20000	-0.0298	
618.40000	-0.0294	
618.60000	-0.0290	
618.80000	-0.0282	
619.00000	-0.0278	
619.20000	-0.0273	
619.40000	-0.0272	
619.60000	-0.0264	
619.80000	-0.0256	
620.00000	-0.0255	
620.20000	-0.0249	
620.40000	-0.0246	
620.60000	-0.0241	
620.80000	-0.0237	
621.00000	-0.0230	
621.20000	-0.0232	
621.40000	-0.0227	
621.60000	-0.0224	
621.80000	-0.0220	
622.00000	-0.0215	
622.20000	-0.0217	
622.40000	-0.0215	
622.60000	-0.0215	
622.80000	-0.0212	
623.00000	-0.0215	
623.20000	-0.0211	
623.40000	-0.0209	
623.60000	-0.0204	
623.80000	-0.0203	
624.00000	-0.0198	
624.20000	-0.0197	
624.40000	-0.0192	
624.60000	-0.0191	
624.80000	-0.0191	
625.00000	-0.0192	
625.20000	-0.0195	
625.40000	-0.0203	
625.60000	-0.0206	
625.80000	-0.0212	
626.00000	-0.0218	
626.20000	-0.0224	
626.40000	-0.0226	
626.60000	-0.0233	
626.80000	-0.0238	
627.00000	-0.0243	
627.20000	-0.0250	
627.40000	-0.0255	
627.60000	-0.0261	
627.80000	-0.0262	
628.00000	-0.0272	
628.20000	-0.0281	
628.40000	-0.0282	
628.60000	-0.0282	
628.80000	-0.0288	
629.00000	-0.0291	
629.20000	-0.0298	
629.40000	-0.0301	
629.60000	-0.0307	
629.80000	-0.0311	
630.00000	-0.0316	
630.20000	-0.0311	
630.40000	-0.0316	
630.60000	-0.0319	
630.80000	-0.0319	
631.00000	-0.0320	
631.20000	-0.0323	
631.40000	-0.0323	
631.60000	-0.0327	
631.80000	-0.0327	
632.00000	-0.0328	
632.20000	-0.0328	
632.40000	-0.0325	
632.60000	-0.0327	
632.80000	-0.0323	
633.00000	-0.0320	
633.20000	-0.0319	
633.40000	-0.0319	
633.60000	-0.0319	
633.80000	-0.0316	
634.00000	-0.0314	
634.20000	-0.0310	
634.40000	-0.0310	
634.60000	-0.0304	
634.80000	-0.0299	
635.00000	-0.0294	
635.20000	-0.0291	
635.40000	-0.0284	
635.60000	-0.0278	
635.80000	-0.0278	
636.00000	-0.0273	
636.20000	-0.0270	
636.40000	-0.0264	
636.60000	-0.0259	
636.80000	-0.0256	
637.00000	-0.0249	
637.20000	-0.0243	
637.40000	-0.0243	
637.60000	-0.0238	
637.80000	-0.0233	
638.00000	-0.0230	
638.20000	-0.0224	
638.40000	-0.0220	
638.60000	-0.0218	
638.80000	-0.0218	
639.00000	-0.0215	
639.20000	-0.0218	
639.40000	-0.0215	
639.60000	-0.0212	
639.80000	-0.0212	
640.00000	-0.0208	
640.20000	-0.0204	
640.40000	-0.0198	
640.60000	-0.0198	
640.80000	-0.0195	
641.00000	-0.0191	
641.20000	-0.0189	
641.40000	-0.0191	
641.60000	-0.0188	
641.80000	-0.0191	
642.00000	-0.0198	
642.20000	-0.0204	
642.40000	-0.0208	
642.60000	-0.0214	
642.80000	-0.0217	
643.00000	-0.0221	
643.20000	-0.0227	
643.40000	-0.0237	
643.60000	-0.0240	
643.80000	-0.0249	
644.00000	-0.0250	
644.20000	-0.0258	
644.40000	-0.0264	
644.60000	-0.0264	
644.80000	-0.0273	
645.00000	-0.0279	
645.20000	-0.0282	
645.40000	-0.0284	
645.60000	-0.0288	
645.80000	-0.0291	
646.00000	-0.0296	
646.20000	-0.0299	
646.40000	-0.0304	
646.60000	-0.0307	
646.80000	-0.0311	
647.00000	-0.0311	
647.20000	-0.0314	
647.40000	-0.0317	
647.60000	-0.0319	
647.80000	-0.0317	
648.00000	-0.0320	
648.20000	-0.0325	
648.40000	-0.0325	
648.60000	-0.0325	
648.80000	-0.0325	
649.00000	-0.0327	
649.20000	-0.0325	
649.40000	-0.0322	
649.60000	-0.0319	
649.80000	-0.0322	
650.00000	-0.0317	
650.20000	-0.0317	
650.40000	-0.0317	
650.60000	-0.0311	
650.80000	-0.0310	
651.00000	-0.0304	
651.20000	-0.0304	
651.40000	-0.0299	
651.60000	-0.0296	
651.80000	-0.0290	
652.00000	-0.0285	
652.20000	-0.0281	
652.40000	-0.0279	
652.60000	-0.0273	
652.80000	-0.0270	
653.00000	-0.0267	
653.20000	-0.0259	
653.40000	-0.0253	
653.60000	-0.0247	
653.80000	-0.0243	
654.00000	-0.0238	
654.20000	-0.0238	
654.40000	-0.0233	
654.60000	-0.0227	
654.80000	-0.0224	
655.00000	-0.0221	
655.20000	-0.0218	
655.40000	-0.0218	
655.60000	-0.0218	
655.80000	-0.0215	
656.00000	-0.0215	
656.20000	-0.0212	
656.40000	-0.0214	
656.60000	-0.0211	
656.80000	-0.0206	
657.00000	-0.0197	
657.20000	-0.0198	
657.40000	-0.0195	
657.60000	-0.0191	
657.80000	-0.0192	
658.00000	-0.0194	
658.20000	-0.0194	
658.40000	-0.0197	
658.60000	-0.0198	
658.80000	-0.0206	
659.00000	-0.0211	
659.20000	-0.0214	
659.40000	-0.0220	
659.60000	-0.0224	
659.80000	-0.0230	
660.00000	-0.0240	
660.20000	-0.0246	
660.40000	-0.0247	
660.60000	-0.0253	
660.80000	-0.0259	
661.00000	-0.0264	
661.20000	-0.0269	
661.40000	-0.0276	
661.60000	-0.0281	
661.80000	-0.0281	
662.00000	-0.0288	
662.20000	-0.0288	
662.40000	-0.0293	
662.60000	-0.0298	
662.80000	-0.0302	
663.00000	-0.0307	
663.20000	-0.0310	
663.40000	-0.0314	
663.60000	-0.0317	
663.80000	-0.0317	
664.00000	-0.0320	
664.20000	-0.0323	
664.40000	-0.0325	
664.60000	-0.0325	
664.80000	-0.0327	
665.00000	-0.0327	
665.20000	-0.0331	
665.40000	-0.0328	
665.60000	-0.0333	
665.80000	-0.0328	
666.00000	-0.0328	
666.20000	-0.0325	
666.40000	-0.0325	
666.60000	-0.0327	
666.80000	-0.0323	
667.00000	-0.0322	
667.20000	-0.0319	
667.40000	-0.0319	
667.60000	-0.0317	
667.80000	-0.0313	
668.00000	-0.0310	
668.20000	-0.0304	
668.40000	-0.0299	
668.60000	-0.0296	
668.80000	-0.0293	
669.00000	-0.0284	
669.20000	-0.0282	
669.40000	-0.0279	
669.60000	-0.0275	
669.80000	-0.0267	
670.00000	-0.0261	
670.20000	-0.0256	
670.40000	-0.0250	
670.60000	-0.0249	
670.80000	-0.0243	
671.00000	-0.0241	
671.20000	-0.0240	
671.40000	-0.0233	
671.60000	-0.0227	
671.80000	-0.0224	
672.00000	-0.0226	
672.20000	-0.0224	
672.40000	-0.0224	
672.60000	-0.0221	
672.80000	-0.0217	
673.00000	-0.0217	
673.20000	-0.0214	
673.40000	-0.0212	
673.60000	-0.0208	
673.80000	-0.0204	
674.00000	-0.0204	
674.20000	-0.0204	
674.40000	-0.0200	
674.60000	-0.0200	
674.80000	-0.0200	
675.00000	-0.0203	
675.20000	-0.0208	
675.40000	-0.0209	
675.60000	-0.0215	
675.80000	-0.0221	
676.00000	-0.0229	
676.20000	-0.0235	
676.40000	-0.0241	
676.60000	-0.0249	
676.80000	-0.0253	
677.00000	-0.0259	
677.20000	-0.0262	
677.40000	-0.0270	
677.60000	-0.0273	
677.80000	-0.0276	
678.00000	-0.0282	
678.20000	-0.0285	
678.40000	-0.0290	
678.60000	-0.0293	
678.80000	-0.0296	
679.00000	-0.0298	
679.20000	-0.0304	
679.40000	-0.0311	
679.60000	-0.0316	
679.80000	-0.0319	
680.00000	-0.0322	
680.20000	-0.0327	
680.40000	-0.0327	
680.60000	-0.0328	
680.80000	-0.0328	
681.00000	-0.0333	
681.20000	-0.0336	
681.40000	-0.0333	
681.60000	-0.0334	
681.80000	-0.0337	
682.00000	-0.0336	
682.20000	-0.0336	
682.40000	-0.0336	
682.60000	-0.0336	
682.80000	-0.0333	
683.00000	-0.0331	
683.20000	-0.0327	
683.40000	-0.0325	
683.60000	-0.0323	
683.80000	-0.0320	
684.00000	-0.0320	
684.20000	-0.0319	
684.40000	-0.0316	
684.60000	-0.0310	
684.80000	-0.0304	
685.00000	-0.0304	
685.20000	-0.0296	
685.40000	-0.0293	
685.60000	-0.0291	
685.80000	-0.0284	
686.00000	-0.0279	
686.20000	-0.0276	
686.40000	-0.0270	
686.60000	-0.0261	
686.80000	-0.0261	
687.00000	-0.0255	
687.20000	-0.0249	
687.40000	-0.0247	
687.60000	-0.0246	
687.80000	-0.0240	
688.00000	-0.0237	
688.20000	-0.0230	
688.40000	-0.0227	
688.60000	-0.0226	
688.80000	-0.0226	
689.00000	-0.0218	
689.20000	-0.0218	
689.40000	-0.0218	
689.60000	-0.0218	
689.80000	-0.0217	
690.00000	-0.0212	
690.20000	-0.0209	
690.40000	-0.0211	
690.60000	-0.0206	
690.80000	-0.0206	
691.00000	-0.0200	
691.20000	-0.0200	
691.40000	-0.0198	
691.60000	-0.0203	
691.80000	-0.0203	
692.00000	-0.0211	
692.20000	-0.0217	
692.40000	-0.0224	
692.60000	-0.0229	
692.80000	-0.0233	
693.00000	-0.0237	
693.20000	-0.0246	
693.40000	-0.0249	
693.60000	-0.0256	
693.80000	-0.0258	
694.00000	-0.0264	
694.20000	-0.0270	
694.40000	-0.0279	
694.60000	-0.0279	
694.80000	-0.0285	
695.00000	-0.0291	
695.20000	-0.0293	
695.40000	-0.0296	
695.60000	-0.0301	
695.80000	-0.0304	
696.00000	-0.0310	
696.20000	-0.0316	
696.40000	-0.0319	
696.60000	-0.0322	
696.80000	-0.0323	
697.00000	-0.0325	
697.20000	-0.0327	
697.40000	-0.0327	
697.60000	-0.0331	
697.80000	-0.0334	
698.00000	-0.0334	
698.20000	-0.0336	
698.40000	-0.0334	
698.60000	-0.0339	
698.80000	-0.0340	
699.00000	-0.0339	
699.20000	-0.0336	
699.40000	-0.0336	
699.60000	-0.0334	
699.80000	-0.0333	
700.00000	-0.0327	
700.20000	-0.0328	
700.40000	-0.0325	
700.60000	-0.0323	
700.80000	-0.0320	
701.00000	-0.0320	
701.20000	-0.0314	
701.40000	-0.0311	
701.60000	-0.0304	
701.80000	-0.0301	
702.00000	-0.0296	
702.20000	-0.0291	
702.40000	-0.0284	
702.60000	-0.0282	
702.80000	-0.0279	
703.00000	-0.0275	
703.20000	-0.0267	
703.40000	-0.0264	
703.60000	-0.0261	
703.80000	-0.0255	
704.00000	-0.0252	
704.20000	-0.0250	
704.40000	-0.0249	
704.60000	-0.0241	
704.80000	-0.0238	
705.00000	-0.0233	
705.20000	-0.0226	
705.40000	-0.0229	
705.60000	-0.0230	
705.80000	-0.0229	
706.00000	-0.0226	
706.20000	-0.0226	
706.40000	-0.0218	
706.60000	-0.0215	
706.80000	-0.0214	
707.00000	-0.0212	
707.20000	-0.0211	
707.40000	-0.0209	
707.60000	-0.0206	
707.80000	-0.0198	
708.00000	-0.0200	
708.20000	-0.0204	
708.40000	-0.0203	
708.60000	-0.0211	
708.80000	-0.0215	
709.00000	-0.0217	
709.20000	-0.0230	
709.40000	-0.0237	
709.60000	-0.0238	
709.80000	-0.0243	
710.00000	-0.0249	
710.20000	-0.0253	
710.40000	-0.0259	
710.60000	-0.0264	
710.80000	-0.0269	
711.00000	-0.0275	
711.20000	-0.0275	
711.40000	-0.0282	
711.60000	-0.0285	
711.80000	-0.0293	
712.00000	-0.0294	
712.20000	-0.0296	
712.40000	-0.0299	
712.60000	-0.0307	
712.80000	-0.0305	
713.00000	-0.0314	
713.20000	-0.0316	
713.40000	-0.0319	
713.60000	-0.0320	
713.80000	-0.0322	
714.00000	-0.0327	
714.20000	-0.0328	
714.40000	-0.0331	
714.60000	-0.0331	
714.80000	-0.0334	
715.00000	-0.0333	
715.20000	-0.0334	
715.40000	-0.0333	
715.60000	-0.0336	
715.80000	-0.0333	
716.00000	-0.0331	
716.20000	-0.0333	
716.40000	-0.0328	
716.60000	-0.0325	
716.80000	-0.0323	
717.00000	-0.0319	
717.20000	-0.0319	
717.40000	-0.0314	
717.60000	-0.0310	
717.80000	-0.0307	
718.00000	-0.0301	
718.20000	-0.0294	
718.40000	-0.0288	
718.60000	-0.0284	
718.80000	-0.0282	
719.00000	-0.0275	
719.20000	-0.0270	
719.40000	-0.0262	
719.60000	-0.0256	
719.80000	-0.0250	
720.00000	-0.0246	
720.20000	-0.0238	
720.40000	-0.0230	
720.60000	-0.0224	
720.80000	-0.0217	
721.00000	-0.0212	
721.20000	-0.0206	
721.40000	-0.0197	
721.60000	-0.0192	
721.80000	-0.0188	
722.00000	-0.0182	
722.20000	-0.0177	
722.40000	-0.0175	
722.60000	-0.0166	
722.80000	-0.0156	
723.00000	-0.0148	
723.20000	-0.0134	
723.40000	-0.0130	
723.60000	-0.0121	
723.80000	-0.0111	
724.00000	-0.0104	
724.20000	-0.0092	
724.40000	-0.0082	
724.60000	-0.0078	
724.80000	-0.0072	
725.00000	-0.0066	
725.20000	-0.0064	
725.40000	-0.0064	
725.60000	-0.0064	
725.80000	-0.0064	
726.00000	-0.0066	
726.20000	-0.0066	
726.40000	-0.0070	
726.60000	-0.0069	
726.80000	-0.0070	
727.00000	-0.0067	
727.20000	-0.0066	
727.40000	-0.0060	
727.60000	-0.0056	
727.80000	-0.0052	
728.00000	-0.0047	
728.20000	-0.0040	
728.40000	-0.0034	
728.60000	-0.0024	
728.80000	-0.0014	
729.00000	 0.0000	
729.20000	 0.0008	
729.40000	 0.0023	
729.60000	 0.0040	
729.80000	 0.0055	
730.00000	 0.0078	
730.20000	 0.0101	
730.40000	 0.0124	
730.60000	 0.0146	
730.80000	 0.0172	
731.00000	 0.0195	
731.20000	 0.0224	
731.40000	 0.0259	
731.60000	 0.0298	
731.80000	 0.0340	
732.00000	 0.0397	
732.20000	 0.0458	
732.40000	 0.0526	
732.60000	 0.0607	
732.80000	 0.0696	
733.00000	 0.0790	
733.20000	 0.0891	
733.40000	 0.0998	
733.60000	 0.1108	
733.80000	 0.1222	
734.00000	 0.1334	
734.20000	 0.1448	
734.40000	 0.1559	
734.60000	 0.1668	
734.80000	 0.1767	
735.00000	 0.1862	
735.20000	 0.1952	
735.40000	 0.2031	
735.60000	 0.2097	
735.80000	 0.2158	
736.00000	 0.2205	
736.20000	 0.2242	
736.40000	 0.2272	
736.60000	 0.2290	
736.80000	 0.2296	
737.00000	 0.2292	
737.20000	 0.2283	
737.40000	 0.2261	
737.60000	 0.2231	
737.80000	 0.2194	
738.00000	 0.2155	
738.20000	 0.2109	
738.40000	 0.2057	
738.60000	 0.2000	
738.80000	 0.1941	
739.00000	 0.1883	
739.20000	 0.1817	
739.40000	 0.1752	
739.60000	 0.1692	
739.80000	 0.1630	
740.00000	 0.1572	
740.20000	 0.1508	
740.40000	 0.1447	
740.60000	 0.1390	
740.80000	 0.1334	
741.00000	 0.1288	
741.20000	 0.1234	
741.40000	 0.1184	
741.60000	 0.1135	
741.80000	 0.1088	
742.00000	 0.1041	
742.20000	 0.0995	
742.40000	 0.0955	
742.60000	 0.0917	
742.80000	 0.0883	
743.00000	 0.0856	
743.20000	 0.0832	
743.40000	 0.0807	
743.60000	 0.0790	
743.80000	 0.0778	
744.00000	 0.0769	
744.20000	 0.0760	
744.40000	 0.0755	
744.60000	 0.0754	
744.80000	 0.0757	
745.00000	 0.0760	
745.20000	 0.0768	
745.40000	 0.0778	
745.60000	 0.0786	
745.80000	 0.0800	
746.00000	 0.0810	
746.20000	 0.0822	
746.40000	 0.0839	
746.60000	 0.0851	
746.80000	 0.0865	
747.00000	 0.0880	
747.20000	 0.0896	
747.40000	 0.0909	
747.60000	 0.0922	
747.80000	 0.0932	
748.00000	 0.0945	
748.20000	 0.0952	
748.40000	 0.0958	
748.60000	 0.0964	
748.80000	 0.0967	
749.00000	 0.0970	
749.20000	 0.0975	
749.40000	 0.0980	
749.60000	 0.0987	
749.80000	 0.0989	
750.00000	 0.0995	
750.20000	 0.1003	
750.40000	 0.1007	
750.60000	 0.1013	
750.80000	 0.1019	
751.00000	 0.1030	
751.20000	 0.1035	
751.40000	 0.1044	
751.60000	 0.1051	
751.80000	 0.1057	
752.00000	 0.1065	
752.20000	 0.1068	
752.40000	 0.1071	
752.60000	 0.1074	
752.80000	 0.1074	
753.00000	 0.1076	
753.20000	 0.1073	
753.40000	 0.1071	
753.60000	 0.1068	
753.80000	 0.1064	
754.00000	 0.1059	
754.20000	 0.1053	
754.40000	 0.1044	
754.60000	 0.1025	
754.80000	 0.1012	
755.00000	 0.0992	
755.20000	 0.0969	
755.40000	 0.0931	
755.60000	 0.0893	
755.80000	 0.0851	
756.00000	 0.0807	
756.20000	 0.0758	
756.40000	 0.0711	
756.60000	 0.0655	
756.80000	 0.0592	
757.00000	 0.0531	
757.20000	 0.0471	
757.40000	 0.0404	
757.60000	 0.0343	
757.80000	 0.0281	
758.00000	 0.0218	
758.20000	 0.0154	
758.40000	 0.0096	
758.60000	 0.0032	
758.80000	-0.0027	
759.00000	-0.0085	
759.20000	-0.0148	
759.40000	-0.0203	
759.60000	-0.0250	
759.80000	-0.0304	
760.00000	-0.0349	
760.20000	-0.0398	
760.40000	-0.0443	
760.60000	-0.0485	
760.80000	-0.0519	
761.00000	-0.0562	
761.20000	-0.0597	
761.40000	-0.0629	
761.60000	-0.0656	
761.80000	-0.0684	
762.00000	-0.0713	
762.20000	-0.0731	
762.40000	-0.0752	
762.60000	-0.0772	
762.80000	-0.0787	
763.00000	-0.0801	
763.20000	-0.0813	
763.40000	-0.0819	
763.60000	-0.0822	
763.80000	-0.0827	
764.00000	-0.0822	
764.20000	-0.0824	
764.40000	-0.0821	
764.60000	-0.0815	
764.80000	-0.0810	
765.00000	-0.0807	
765.20000	-0.0806	
765.40000	-0.0803	
765.60000	-0.0804	
765.80000	-0.0800	
766.00000	-0.0798	
766.20000	-0.0797	
766.40000	-0.0798	
766.60000	-0.0790	
766.80000	-0.0789	
767.00000	-0.0789	
767.20000	-0.0787	
767.40000	-0.0784	
767.60000	-0.0781	
767.80000	-0.0780	
768.00000	-0.0781	
768.20000	-0.0783	
768.40000	-0.0786	
768.60000	-0.0786	
768.80000	-0.0790	
769.00000	-0.0798	
769.20000	-0.0807	
769.40000	-0.0812	
769.60000	-0.0815	
769.80000	-0.0821	
770.00000	-0.0829	
770.20000	-0.0836	
770.40000	-0.0845	
770.60000	-0.0854	
770.80000	-0.0862	
771.00000	-0.0871	
771.20000	-0.0879	
771.40000	-0.0887	
771.60000	-0.0896	
771.80000	-0.0900	
772.00000	-0.0911	
772.20000	-0.0919	
772.40000	-0.0931	
772.60000	-0.0929	
772.80000	-0.0937	
773.00000	-0.0935	
773.20000	-0.0935	
773.40000	-0.0938	
773.60000	-0.0938	
773.80000	-0.0941	
774.00000	-0.0940	
774.20000	-0.0940	
774.40000	-0.0943	
774.60000	-0.0941	
774.80000	-0.0943	
775.00000	-0.0952	
775.20000	-0.0954	
775.40000	-0.0961	
775.60000	-0.0967	
775.80000	-0.0974	
776.00000	-0.0983	
776.20000	-0.0990	
776.40000	-0.0996	
776.60000	-0.1006	
776.80000	-0.1018	
777.00000	-0.1019	
777.20000	-0.1025	
777.40000	-0.1035	
777.60000	-0.1041	
777.80000	-0.1045	
778.00000	-0.1054	
778.20000	-0.1056	
778.40000	-0.1056	
778.60000	-0.1060	
778.80000	-0.1062	
779.00000	-0.1064	
779.20000	-0.1065	
779.40000	-0.1065	
779.60000	-0.1067	
779.80000	-0.1068	
780.00000	-0.1068	
780.20000	-0.1073	
780.40000	-0.1070	
780.60000	-0.1074	
780.80000	-0.1073	
781.00000	-0.1070	
781.20000	-0.1077	
781.40000	-0.1079	
781.60000	-0.1080	
781.80000	-0.1085	
782.00000	-0.1088	
782.20000	-0.1091	
782.40000	-0.1097	
782.60000	-0.1097	
782.80000	-0.1099	
783.00000	-0.1097	
783.20000	-0.1097	
783.40000	-0.1102	
783.60000	-0.1102	
783.80000	-0.1100	
784.00000	-0.1099	
784.20000	-0.1100	
784.40000	-0.1099	
784.60000	-0.1099	
784.80000	-0.1097	
785.00000	-0.1091	
785.20000	-0.1085	
785.40000	-0.1082	
785.60000	-0.1076	
785.80000	-0.1067	
786.00000	-0.1060	
786.20000	-0.1056	
786.40000	-0.1045	
786.60000	-0.1038	
786.80000	-0.1033	
787.00000	-0.1019	
787.20000	-0.1012	
787.40000	-0.1004	
787.60000	-0.0995	
787.80000	-0.0990	
788.00000	-0.0983	
788.20000	-0.0975	
788.40000	-0.0964	
788.60000	-0.0958	
788.80000	-0.0955	
789.00000	-0.0949	
789.20000	-0.0948	
789.40000	-0.0946	
789.60000	-0.0934	
789.80000	-0.0928	
790.00000	-0.0925	
790.20000	-0.0917	
790.40000	-0.0919	
790.60000	-0.0914	
790.80000	-0.0909	
791.00000	-0.0905	
791.20000	-0.0903	
791.40000	-0.0899	
791.60000	-0.0894	
791.80000	-0.0896	
792.00000	-0.0894	
792.20000	-0.0896	
792.40000	-0.0897	
792.60000	-0.0899	
792.80000	-0.0900	
793.00000	-0.0903	
793.20000	-0.0906	
793.40000	-0.0908	
793.60000	-0.0912	
793.80000	-0.0917	
794.00000	-0.0920	
794.20000	-0.0926	
794.40000	-0.0934	
794.60000	-0.0940	
794.80000	-0.0943	
795.00000	-0.0949	
795.20000	-0.0957	
795.40000	-0.0963	
795.60000	-0.0972	
795.80000	-0.0981	
796.00000	-0.0990	
796.20000	-0.0999	
796.40000	-0.1010	
796.60000	-0.1016	
796.80000	-0.1027	
797.00000	-0.1031	
797.20000	-0.1039	
797.40000	-0.1045	
797.60000	-0.1053	
797.80000	-0.1060	
798.00000	-0.1076	
798.20000	-0.1085	
798.40000	-0.1099	
798.60000	-0.1109	
798.80000	-0.1123	
799.00000	-0.1134	
799.20000	-0.1140	
799.40000	-0.1151	
799.60000	-0.1158	
799.80000	-0.1164	
800.00000	-0.1170	
800.20000	-0.1172	
800.40000	-0.1176	
800.60000	-0.1181	
800.80000	-0.1184	
801.00000	-0.1186	
801.20000	-0.1187	
801.40000	-0.1190	
801.60000	-0.1192	
801.80000	-0.1199	
802.00000	-0.1204	
802.20000	-0.1212	
802.40000	-0.1222	
802.60000	-0.1233	
802.80000	-0.1247	
803.00000	-0.1260	
803.20000	-0.1276	
803.40000	-0.1294	
803.60000	-0.1318	
803.80000	-0.1341	
804.00000	-0.1364	
804.20000	-0.1395	
804.40000	-0.1421	
804.60000	-0.1443	
804.80000	-0.1469	
805.00000	-0.1498	
805.20000	-0.1520	
805.40000	-0.1547	
805.60000	-0.1575	
805.80000	-0.1605	
806.00000	-0.1628	
806.20000	-0.1653	
806.40000	-0.1668	
806.60000	-0.1685	
806.80000	-0.1703	
807.00000	-0.1720	
807.20000	-0.1735	
807.40000	-0.1752	
807.60000	-0.1767	
807.80000	-0.1791	
808.00000	-0.1820	
808.20000	-0.1842	
808.40000	-0.1874	
808.60000	-0.1907	
808.80000	-0.1942	
809.00000	-0.1971	
809.20000	-0.1999	
809.40000	-0.2028	
809.60000	-0.2055	
809.80000	-0.2080	
810.00000	-0.2106	
810.20000	-0.2129	
810.40000	-0.2147	
810.60000	-0.2156	
810.80000	-0.2159	
811.00000	-0.2159	
811.20000	-0.2145	
811.40000	-0.2122	
811.60000	-0.2095	
811.80000	-0.2060	
812.00000	-0.2016	
812.20000	-0.1964	
812.40000	-0.1906	
812.60000	-0.1846	
812.80000	-0.1779	
813.00000	-0.1709	
813.20000	-0.1631	
813.40000	-0.1546	
813.60000	-0.1457	
813.80000	-0.1361	
814.00000	-0.1248	
814.20000	-0.1129	
814.40000	-0.0995	
814.60000	-0.0842	
814.80000	-0.0681	
815.00000	-0.0508	
815.20000	-0.0320	
815.40000	-0.0122	
815.60000	 0.0081	
815.80000	 0.0298	
816.00000	 0.0522	
816.20000	 0.0755	
816.40000	 0.0993	
816.60000	 0.1247	
816.80000	 0.1512	
817.00000	 0.1788	
817.20000	 0.2081	
817.40000	 0.2385	
817.60000	 0.2699	
817.80000	 0.3026	
818.00000	 0.3363	
818.20000	 0.3705	
818.40000	 0.4057	
818.60000	 0.4414	
818.80000	 0.4784	
819.00000	 0.5164	
819.20000	 0.5547	
819.40000	 0.5937	
819.60000	 0.6334	
819.80000	 0.6734	
820.00000	 0.7132	
820.20000	 0.7533	
820.40000	 0.7932	
820.60000	 0.8334	
820.80000	 0.8733	
821.00000	 0.9128	
821.20000	 0.9518	
821.40000	 0.9908	
821.60000	 1.0271	
821.80000	 1.0617	
822.00000	 1.0927	
822.20000	 1.1203	
822.40000	 1.1441	
822.60000	 1.1636	
822.80000	 1.1771	
823.00000	 1.1850	
823.20000	 1.1859	
823.40000	 1.1804	
823.60000	 1.1679	
823.80000	 1.1487	
824.00000	 1.1238	
824.20000	 1.0939	
824.40000	 1.0593	
824.60000	 1.0213	
824.80000	 0.9802	
825.00000	 0.9355	
825.20000	 0.8878	
825.40000	 0.8366	
825.60000	 0.7828	
825.80000	 0.7266	
826.00000	 0.6682	
826.20000	 0.6076	
826.40000	 0.5452	
826.60000	 0.4816	
826.80000	 0.4160	
827.00000	 0.3496	
827.20000	 0.2826	
827.40000	 0.2158	
827.60000	 0.1503	
827.80000	 0.0865	
828.00000	 0.0247	
828.20000	-0.0359	
828.40000	-0.0960	
828.60000	-0.1582	
828.80000	-0.2225	
829.00000	-0.2887	
829.20000	-0.3586	
829.40000	-0.4309	
829.60000	-0.5040	
829.80000	-0.5763	
830.00000	-0.6467	
830.20000	-0.7130	
830.40000	-0.7753	
830.60000	-0.8333	
830.80000	-0.8867	
831.00000	-0.9361	
831.20000	-0.9816	
831.40000	-1.0239	
831.60000	-1.0631	
831.80000	-1.0997	
832.00000	-1.1337	
832.20000	-1.1646	
832.40000	-1.1937	
832.60000	-1.2199	
832.80000	-1.2444	
833.00000	-1.2674	
833.20000	-1.2889	
833.40000	-1.3087	
833.60000	-1.3274	
833.80000	-1.3451	
834.00000	-1.3615	
834.20000	-1.3768	
834.40000	-1.3904	
834.60000	-1.4017	
834.80000	-1.4116	
835.00000	-1.4191	
835.20000	-1.4253	
835.40000	-1.4297	
835.60000	-1.4331	
835.80000	-1.4343	
836.00000	-1.4346	
836.20000	-1.4322	
836.40000	-1.4279	
836.60000	-1.4220	
836.80000	-1.4139	
837.00000	-1.4035	
837.20000	-1.3913	
837.40000	-1.3768	
837.60000	-1.3600	
837.80000	-1.3417	
838.00000	-1.3216	
838.20000	-1.2997	
838.40000	-1.2764	
838.60000	-1.2515	
838.80000	-1.2265	
839.00000	-1.2003	
839.20000	-1.1736	
839.40000	-1.1461	
839.60000	-1.1179	
839.80000	-1.0890	
840.00000	-1.0605	
840.20000	-1.0318	
840.40000	-1.0033	
840.60000	-0.9749	
840.80000	-0.9465	
841.00000	-0.9181	
841.20000	-0.8904	
841.40000	-0.8630	
841.60000	-0.8360	
841.80000	-0.8095	
842.00000	-0.7829	
842.20000	-0.7568	
842.40000	-0.7309	
842.60000	-0.7050	
842.80000	-0.6789	
843.00000	-0.6529	
843.20000	-0.6274	
843.40000	-0.6020	
843.60000	-0.5766	
843.80000	-0.5515	
844.00000	-0.5264	
844.20000	-0.5022	
844.40000	-0.4784	
844.60000	-0.4546	
844.80000	-0.4317	
845.00000	-0.4095	
845.20000	-0.3879	
845.40000	-0.3667	
845.60000	-0.3462	
845.80000	-0.3267	
846.00000	-0.3072	
846.20000	-0.2887	
846.40000	-0.2705	
846.60000	-0.2524	
846.80000	-0.2345	
847.00000	-0.2170	
847.20000	-0.1996	
847.40000	-0.1820	
847.60000	-0.1648	
847.80000	-0.1477	
848.00000	-0.1302	
848.20000	-0.1131	
848.40000	-0.0961	
848.60000	-0.0789	
848.80000	-0.0627	
849.00000	-0.0465	
849.20000	-0.0307	
849.40000	-0.0150	
849.60000	 0.0000	
849.80000	 0.0150	
850.00000	 0.0290	
850.20000	 0.0429	
850.40000	 0.0563	
850.60000	 0.0694	
850.80000	 0.0818	
851.00000	 0.0932	
851.20000	 0.1045	
851.40000	 0.1151	
851.60000	 0.1253	
851.80000	 0.1347	
852.00000	 0.1442	
852.20000	 0.1530	
852.40000	 0.1617	
852.60000	 0.1700	
852.80000	 0.1779	
853.00000	 0.1862	
853.20000	 0.1933	
853.40000	 0.2007	
853.60000	 0.2077	
853.80000	 0.2142	
854.00000	 0.2206	
854.20000	 0.2271	
854.40000	 0.2330	
854.60000	 0.2386	
854.80000	 0.2443	
855.00000	 0.2493	
855.20000	 0.2542	
855.40000	 0.2585	
855.60000	 0.2626	
855.80000	 0.2664	
856.00000	 0.2704	
856.20000	 0.2742	
856.40000	 0.2782	
856.60000	 0.2815	
856.80000	 0.2843	
857.00000	 0.2867	
857.20000	 0.2890	
857.40000	 0.2911	
857.60000	 0.2931	
857.80000	 0.2948	
858.00000	 0.2965	
858.20000	 0.2974	
858.40000	 0.2982	
858.60000	 0.2985	
858.80000	 0.2989	
859.00000	 0.2988	
859.20000	 0.2989	
859.40000	 0.2985	
859.60000	 0.2986	
859.80000	 0.2979	
860.00000	 0.2971	
860.20000	 0.2965	
860.40000	 0.2963	
860.60000	 0.2954	
860.80000	 0.2946	
861.00000	 0.2940	
861.20000	 0.2936	
861.40000	 0.2927	
861.60000	 0.2922	
861.80000	 0.2916	
862.00000	 0.2911	
862.20000	 0.2908	
862.40000	 0.2908	
862.60000	 0.2905	
862.80000	 0.2899	
863.00000	 0.2899	
863.20000	 0.2898	
863.40000	 0.2898	
863.60000	 0.2896	
863.80000	 0.2898	
864.00000	 0.2896	
864.20000	 0.2895	
864.40000	 0.2899	
864.60000	 0.2898	
864.80000	 0.2898	
865.00000	 0.2901	
865.20000	 0.2898	
865.40000	 0.2899	
865.60000	 0.2899	
865.80000	 0.2901	
866.00000	 0.2899	
866.20000	 0.2898	
866.40000	 0.2901	
866.60000	 0.2898	
866.80000	 0.2898	
867.00000	 0.2896	
867.20000	 0.2895	
867.40000	 0.2892	
867.60000	 0.2888	
867.80000	 0.2888	
868.00000	 0.2888	
868.20000	 0.2888	
868.40000	 0.2888	
868.60000	 0.2887	
868.80000	 0.2884	
869.00000	 0.2882	
869.20000	 0.2879	
869.40000	 0.2876	
869.60000	 0.2873	
869.80000	 0.2869	
870.00000	 0.2861	
870.20000	 0.2859	
870.40000	 0.2855	
870.60000	 0.2844	
870.80000	 0.2834	
871.00000	 0.2824	
871.20000	 0.2812	
871.40000	 0.2805	
871.60000	 0.2792	
871.80000	 0.2780	
872.00000	 0.2760	
872.20000	 0.2745	
872.40000	 0.2727	
872.60000	 0.2708	
872.80000	 0.2689	
873.00000	 0.2672	
873.20000	 0.2655	
873.40000	 0.2634	
873.60000	 0.2614	
873.80000	 0.2591	
874.00000	 0.2567	
874.20000	 0.2548	
874.40000	 0.2524	
874.60000	 0.2496	
874.80000	 0.2470	
875.00000	 0.2441	
875.20000	 0.2411	
875.40000	 0.2376	
875.60000	 0.2345	
875.80000	 0.2310	
876.00000	 0.2277	
876.20000	 0.2245	
876.40000	 0.2211	
876.60000	 0.2182	
876.80000	 0.2147	
877.00000	 0.2116	
877.20000	 0.2083	
877.40000	 0.2051	
877.60000	 0.2016	
877.80000	 0.1984	
878.00000	 0.1952	
878.20000	 0.1924	
878.40000	 0.1895	
878.60000	 0.1862	
878.80000	 0.1831	
879.00000	 0.1801	
879.20000	 0.1773	
879.40000	 0.1741	
879.60000	 0.1712	
879.80000	 0.1683	
880.00000	 0.1659	
880.20000	 0.1628	
880.40000	 0.1604	
880.60000	 0.1576	
880.80000	 0.1549	
881.00000	 0.1524	
881.20000	 0.1495	
881.40000	 0.1468	
881.60000	 0.1445	
881.80000	 0.1419	
882.00000	 0.1396	
882.20000	 0.1372	
882.40000	 0.1352	
882.60000	 0.1331	
882.80000	 0.1308	
883.00000	 0.1286	
883.20000	 0.1268	
883.40000	 0.1250	
883.60000	 0.1225	
883.80000	 0.1202	
884.00000	 0.1189	
884.20000	 0.1167	
884.40000	 0.1151	
884.60000	 0.1134	
884.80000	 0.1117	
885.00000	 0.1103	
885.20000	 0.1085	
885.40000	 0.1074	
885.60000	 0.1056	
885.80000	 0.1041	
886.00000	 0.1024	
886.20000	 0.1010	
886.40000	 0.0996	
886.60000	 0.0986	
886.80000	 0.0969	
887.00000	 0.0955	
887.20000	 0.0945	
887.40000	 0.0928	
887.60000	 0.0912	
887.80000	 0.0900	
888.00000	 0.0890	
888.20000	 0.0874	
888.40000	 0.0861	
888.60000	 0.0845	
888.80000	 0.0832	
889.00000	 0.0816	
889.20000	 0.0804	
889.40000	 0.0795	
889.60000	 0.0781	
889.80000	 0.0771	
890.00000	 0.0757	
890.20000	 0.0743	
890.40000	 0.0732	
890.60000	 0.0720	
890.80000	 0.0706	
891.00000	 0.0696	
891.20000	 0.0681	
891.40000	 0.0662	
891.60000	 0.0650	
891.80000	 0.0632	
892.00000	 0.0612	
892.20000	 0.0595	
892.40000	 0.0578	
892.60000	 0.0558	
892.80000	 0.0545	
893.00000	 0.0526	
893.20000	 0.0510	
893.40000	 0.0490	
893.60000	 0.0471	
893.80000	 0.0459	
894.00000	 0.0443	
894.20000	 0.0423	
894.40000	 0.0409	
894.60000	 0.0394	
894.80000	 0.0381	
895.00000	 0.0362	
895.20000	 0.0349	
895.40000	 0.0334	
895.60000	 0.0323	
895.80000	 0.0310	
896.00000	 0.0296	
896.20000	 0.0282	
896.40000	 0.0269	
896.60000	 0.0258	
896.80000	 0.0241	
897.00000	 0.0232	
897.20000	 0.0224	
897.40000	 0.0208	
897.60000	 0.0201	
897.80000	 0.0192	
898.00000	 0.0182	
898.20000	 0.0169	
898.40000	 0.0165	
898.60000	 0.0153	
898.80000	 0.0143	
899.00000	 0.0134	
899.20000	 0.0125	
899.40000	 0.0119	
899.60000	 0.0110	
899.80000	 0.0104	
900.00000	 0.0099	
900.20000	 0.0090	
900.40000	 0.0085	
900.60000	 0.0081	
900.80000	 0.0073	
901.00000	 0.0070	
901.20000	 0.0064	
901.40000	 0.0060	
901.60000	 0.0058	
901.80000	 0.0058	
902.00000	 0.0055	
902.20000	 0.0053	
902.40000	 0.0047	
902.60000	 0.0046	
902.80000	 0.0041	
903.00000	 0.0043	
903.20000	 0.0041	
903.40000	 0.0040	
903.60000	 0.0038	
903.80000	 0.0037	
904.00000	 0.0032	
904.20000	 0.0027	
904.40000	 0.0024	
904.60000	 0.0023	
904.80000	 0.0023	
905.00000	 0.0018	
905.20000	 0.0017	
905.40000	 0.0012	
905.60000	 0.0006	
905.80000	 0.0000	
906.00000	-0.0003	
906.20000	-0.0012	
906.40000	-0.0012	
906.60000	-0.0014	
906.80000	-0.0015	
907.00000	-0.0020	
907.20000	-0.0023	
907.40000	-0.0026	
907.60000	-0.0031	
907.80000	-0.0031	
908.00000	-0.0038	
908.20000	-0.0047	
908.40000	-0.0052	
908.60000	-0.0063	
908.80000	-0.0069	
909.00000	-0.0081	
909.20000	-0.0092	
909.40000	-0.0102	
909.60000	-0.0111	
909.80000	-0.0124	
910.00000	-0.0133	
910.20000	-0.0137	
910.40000	-0.0151	
910.60000	-0.0157	
910.80000	-0.0166	
911.00000	-0.0172	
911.20000	-0.0185	
911.40000	-0.0194	
911.60000	-0.0195	
911.80000	-0.0206	
912.00000	-0.0212	
912.20000	-0.0220	
912.40000	-0.0229	
912.60000	-0.0235	
912.80000	-0.0247	
913.00000	-0.0252	
913.20000	-0.0258	
913.40000	-0.0264	
913.60000	-0.0272	
913.80000	-0.0276	
914.00000	-0.0281	
914.20000	-0.0290	
914.40000	-0.0294	
914.60000	-0.0299	
914.80000	-0.0302	
915.00000	-0.0311	
915.20000	-0.0313	
915.40000	-0.0322	
915.60000	-0.0322	
915.80000	-0.0323	
916.00000	-0.0327	
916.20000	-0.0328	
916.40000	-0.0327	
916.60000	-0.0334	
916.80000	-0.0333	
917.00000	-0.0336	
917.20000	-0.0339	
917.40000	-0.0337	
917.60000	-0.0336	
917.80000	-0.0340	
918.00000	-0.0337	
918.20000	-0.0336	
918.40000	-0.0333	
918.60000	-0.0331	
918.80000	-0.0333	
919.00000	-0.0328	
919.20000	-0.0327	
919.40000	-0.0325	
919.60000	-0.0323	
919.80000	-0.0323	
920.00000	-0.0323	
920.20000	-0.0320	
920.40000	-0.0320	
920.60000	-0.0316	
920.80000	-0.0317	
921.00000	-0.0314	
921.20000	-0.0316	
921.40000	-0.0314	
921.60000	-0.0314	
921.80000	-0.0314	
922.00000	-0.0316	
922.20000	-0.0319	
922.40000	-0.0322	
922.60000	-0.0322	
922.80000	-0.0323	
923.00000	-0.0320	
923.20000	-0.0317	
923.40000	-0.0317	
923.60000	-0.0319	
923.80000	-0.0317	
924.00000	-0.0319	
924.20000	-0.0317	
924.40000	-0.0319	
924.60000	-0.0316	
924.80000	-0.0319	
925.00000	-0.0325	
925.20000	-0.0333	
925.40000	-0.0337	
925.60000	-0.0346	
925.80000	-0.0357	
926.00000	-0.0360	
926.20000	-0.0368	
926.40000	-0.0375	
926.60000	-0.0378	
926.80000	-0.0386	
927.00000	-0.0395	
927.20000	-0.0400	
927.40000	-0.0406	
927.60000	-0.0412	
927.80000	-0.0421	
928.00000	-0.0427	
928.20000	-0.0432	
928.40000	-0.0439	
928.60000	-0.0441	
928.80000	-0.0447	
929.00000	-0.0453	
929.20000	-0.0458	
929.40000	-0.0464	
929.60000	-0.0470	
929.80000	-0.0475	
930.00000	-0.0481	
930.20000	-0.0487	
930.40000	-0.0490	
930.60000	-0.0491	
930.80000	-0.0496	
931.00000	-0.0497	
931.20000	-0.0502	
931.40000	-0.0505	
931.60000	-0.0508	
931.80000	-0.0510	
932.00000	-0.0510	
932.20000	-0.0511	
932.40000	-0.0511	
932.60000	-0.0514	
932.80000	-0.0514	
933.00000	-0.0513	
933.20000	-0.0516	
933.40000	-0.0514	
933.60000	-0.0519	
933.80000	-0.0516	
934.00000	-0.0514	
934.20000	-0.0513	
934.40000	-0.0511	
934.60000	-0.0510	
934.80000	-0.0507	
935.00000	-0.0504	
935.20000	-0.0502	
935.40000	-0.0497	
935.60000	-0.0496	
935.80000	-0.0494	
936.00000	-0.0493	
936.20000	-0.0488	
936.40000	-0.0485	
936.60000	-0.0482	
936.80000	-0.0479	
937.00000	-0.0473	
937.20000	-0.0468	
937.40000	-0.0467	
937.60000	-0.0470	
937.80000	-0.0464	
938.00000	-0.0461	
938.20000	-0.0461	
938.40000	-0.0458	
938.60000	-0.0452	
938.80000	-0.0465	
939.00000	-0.0461	
939.20000	-0.0462	
939.40000	-0.0464	
939.60000	-0.0459	
939.80000	-0.0453	
940.00000	-0.0449	
940.20000	-0.0449	
940.40000	-0.0447	
940.60000	-0.0447	
940.80000	-0.0443	
941.00000	-0.0443	
941.20000	-0.0444	
941.40000	-0.0444	
941.60000	-0.0444	
941.80000	-0.0450	
942.00000	-0.0455	
942.20000	-0.0462	
942.40000	-0.0467	
942.60000	-0.0471	
942.80000	-0.0479	
943.00000	-0.0487	
943.20000	-0.0494	
943.40000	-0.0494	
943.60000	-0.0507	
943.80000	-0.0510	
944.00000	-0.0514	
944.20000	-0.0523	
944.40000	-0.0528	
944.60000	-0.0529	
944.80000	-0.0533	
945.00000	-0.0533	
945.20000	-0.0539	
945.40000	-0.0546	
945.60000	-0.0549	
945.80000	-0.0554	
946.00000	-0.0560	
946.20000	-0.0565	
946.40000	-0.0568	
946.60000	-0.0571	
946.80000	-0.0571	
947.00000	-0.0571	
947.20000	-0.0572	
947.40000	-0.0575	
947.60000	-0.0580	
947.80000	-0.0574	
948.00000	-0.0577	
948.20000	-0.0578	
948.40000	-0.0578	
948.60000	-0.0584	
948.80000	-0.0586	
949.00000	-0.0589	
949.20000	-0.0586	
949.40000	-0.0586	
949.60000	-0.0581	
949.80000	-0.0581	
950.00000	-0.0577	
950.20000	-0.0575	
950.40000	-0.0574	
950.60000	-0.0571	
950.80000	-0.0571	
951.00000	-0.0568	
951.20000	-0.0566	
951.40000	-0.0560	
951.60000	-0.0552	
951.80000	-0.0549	
952.00000	-0.0546	
952.20000	-0.0540	
952.40000	-0.0537	
952.60000	-0.0534	
952.80000	-0.0528	
953.00000	-0.0523	
953.20000	-0.0517	
953.40000	-0.0513	
953.60000	-0.0508	
953.80000	-0.0504	
954.00000	-0.0502	
954.20000	-0.0496	
954.40000	-0.0494	
954.60000	-0.0490	
954.80000	-0.0488	
955.00000	-0.0482	
955.20000	-0.0481	
955.40000	-0.0482	
955.60000	-0.0482	
955.80000	-0.0484	
956.00000	-0.0481	
956.20000	-0.0473	
956.40000	-0.0467	
956.60000	-0.0467	
956.80000	-0.0465	
957.00000	-0.0458	
957.20000	-0.0459	
957.40000	-0.0455	
957.60000	-0.0450	
957.80000	-0.0449	
958.00000	-0.0450	
958.20000	-0.0450	
958.40000	-0.0446	
958.60000	-0.0453	
958.80000	-0.0461	
959.00000	-0.0462	
959.20000	-0.0470	
959.40000	-0.0471	
959.60000	-0.0475	
959.80000	-0.0481	
960.00000	-0.0482	
960.20000	-0.0490	
960.40000	-0.0493	
960.60000	-0.0494	
960.80000	-0.0500	
961.00000	-0.0505	
961.20000	-0.0511	
961.40000	-0.0513	
961.60000	-0.0513	
961.80000	-0.0517	
962.00000	-0.0523	
962.20000	-0.0523	
962.40000	-0.0526	
962.60000	-0.0529	
962.80000	-0.0531	
963.00000	-0.0531	
963.20000	-0.0536	
963.40000	-0.0537	
963.60000	-0.0537	
963.80000	-0.0539	
964.00000	-0.0540	
964.20000	-0.0543	
964.40000	-0.0543	
964.60000	-0.0540	
964.80000	-0.0539	
965.00000	-0.0539	
965.20000	-0.0540	
965.40000	-0.0536	
965.60000	-0.0539	
965.80000	-0.0537	
966.00000	-0.0536	
966.20000	-0.0533	
966.40000	-0.0536	
966.60000	-0.0531	
966.80000	-0.0528	
967.00000	-0.0526	
967.20000	-0.0526	
967.40000	-0.0522	
967.60000	-0.0516	
967.80000	-0.0514	
968.00000	-0.0508	
968.20000	-0.0502	
968.40000	-0.0497	
968.60000	-0.0491	
968.80000	-0.0487	
969.00000	-0.0484	
969.20000	-0.0479	
969.40000	-0.0471	
969.60000	-0.0464	
969.80000	-0.0459	
970.00000	-0.0453	
970.20000	-0.0447	
970.40000	-0.0443	
970.60000	-0.0436	
970.80000	-0.0430	
971.00000	-0.0427	
971.20000	-0.0424	
971.40000	-0.0420	
971.60000	-0.0418	
971.80000	-0.0415	
972.00000	-0.0415	
972.20000	-0.0412	
972.40000	-0.0415	
972.60000	-0.0410	
972.80000	-0.0409	
973.00000	-0.0404	
973.20000	-0.0397	
973.40000	-0.0395	
973.60000	-0.0391	
973.80000	-0.0389	
974.00000	-0.0385	
974.20000	-0.0381	
974.40000	-0.0377	
974.60000	-0.0377	
974.80000	-0.0374	
975.00000	-0.0377	
975.20000	-0.0378	
975.40000	-0.0380	
975.60000	-0.0386	
975.80000	-0.0389	
976.00000	-0.0391	
976.20000	-0.0397	
976.40000	-0.0400	
976.60000	-0.0401	
976.80000	-0.0407	
977.00000	-0.0410	
977.20000	-0.0415	
977.40000	-0.0420	
977.60000	-0.0423	
977.80000	-0.0424	
978.00000	-0.0427	
978.20000	-0.0429	
978.40000	-0.0429	
978.60000	-0.0430	
978.80000	-0.0433	
979.00000	-0.0436	
979.20000	-0.0438	
979.40000	-0.0439	
979.60000	-0.0444	
979.80000	-0.0444	
980.00000	-0.0447	
980.20000	-0.0447	
980.40000	-0.0449	
980.60000	-0.0450	
980.80000	-0.0452	
981.00000	-0.0455	
981.20000	-0.0452	
981.40000	-0.0450	
981.60000	-0.0450	
981.80000	-0.0450	
982.00000	-0.0449	
982.20000	-0.0446	
982.40000	-0.0447	
982.60000	-0.0444	
982.80000	-0.0443	
983.00000	-0.0439	
983.20000	-0.0439	
983.40000	-0.0438	
983.60000	-0.0433	
983.80000	-0.0429	
984.00000	-0.0426	
984.20000	-0.0426	
984.40000	-0.0423	
984.60000	-0.0415	
984.80000	-0.0410	
985.00000	-0.0406	
985.20000	-0.0400	
985.40000	-0.0394	
985.60000	-0.0388	
985.80000	-0.0388	
986.00000	-0.0383	
986.20000	-0.0374	
986.40000	-0.0368	
986.60000	-0.0365	
986.80000	-0.0360	
987.00000	-0.0354	
987.20000	-0.0346	
987.40000	-0.0340	
987.60000	-0.0336	
987.80000	-0.0333	
988.00000	-0.0325	
988.20000	-0.0322	
988.40000	-0.0317	
988.60000	-0.0314	
988.80000	-0.0317	
989.00000	-0.0317	
989.20000	-0.0313	
989.40000	-0.0310	
989.60000	-0.0305	
989.80000	-0.0302	
990.00000	-0.0294	
990.20000	-0.0290	
990.40000	-0.0288	
990.60000	-0.0285	
990.80000	-0.0285	
991.00000	-0.0281	
991.20000	-0.0279	
991.40000	-0.0281	
991.60000	-0.0278	
991.80000	-0.0282	
992.00000	-0.0284	
992.20000	-0.0291	
992.40000	-0.0296	
992.60000	-0.0299	
992.80000	-0.0304	
993.00000	-0.0305	
993.20000	-0.0310	
993.40000	-0.0314	
993.60000	-0.0317	
993.80000	-0.0319	
994.00000	-0.0325	
994.20000	-0.0327	
994.40000	-0.0328	
994.60000	-0.0336	
994.80000	-0.0337	
995.00000	-0.0342	
995.20000	-0.0342	
995.40000	-0.0348	
995.60000	-0.0348	
995.80000	-0.0349	
996.00000	-0.0352	
996.20000	-0.0357	
996.40000	-0.0356	
996.60000	-0.0356	
996.80000	-0.0357	
997.00000	-0.0357	
997.20000	-0.0360	
997.40000	-0.0360	
997.60000	-0.0360	
997.80000	-0.0360	
998.00000	-0.0363	
998.20000	-0.0362	
998.40000	-0.0359	
998.60000	-0.0362	
998.80000	-0.0359	
999.00000	-0.0356	
999.20000	-0.0354	
999.40000	-0.0356	
999.60000	-0.0348	
999.80000	-0.0346	
1000.00000	-0.0346	
1000.20000	-0.0343	
1000.40000	-0.0339	
1000.60000	-0.0339	
1000.80000	-0.0337	
1001.00000	-0.0331	
1001.20000	-0.0325	
1001.40000	-0.0323	
1001.60000	-0.0314	
1001.80000	-0.0311	
1002.00000	-0.0307	
1002.20000	-0.0299	
1002.40000	-0.0296	
1002.60000	-0.0291	
1002.80000	-0.0282	
1003.00000	-0.0273	
1003.20000	-0.0272	
1003.40000	-0.0262	
1003.60000	-0.0255	
1003.80000	-0.0252	
1004.00000	-0.0247	
1004.20000	-0.0243	
1004.40000	-0.0238	
1004.60000	-0.0232	
1004.80000	-0.0224	
1005.00000	-0.0220	
1005.20000	-0.0215	
1005.40000	-0.0214	
1005.60000	-0.0212	
1005.80000	-0.0211	
1006.00000	-0.0206	
1006.20000	-0.0195	
1006.40000	-0.0192	
1006.60000	-0.0188	
1006.80000	-0.0183	
1007.00000	-0.0182	
1007.20000	-0.0179	
1007.40000	-0.0175	
1007.60000	-0.0168	
1007.80000	-0.0168	
1008.00000	-0.0168	
1008.20000	-0.0165	
1008.40000	-0.0166	
1008.60000	-0.0171	
1008.80000	-0.0174	
1009.00000	-0.0177	
1009.20000	-0.0179	
1009.40000	-0.0185	
1009.60000	-0.0186	
1009.80000	-0.0189	
1010.00000	-0.0191	
1010.20000	-0.0195	
1010.40000	-0.0198	
1010.60000	-0.0198	
1010.80000	-0.0203	
1011.00000	-0.0209	
1011.20000	-0.0211	
1011.40000	-0.0211	
1011.60000	-0.0212	
1011.80000	-0.0215	
1012.00000	-0.0215	
1012.20000	-0.0218	
1012.40000	-0.0220	
1012.60000	-0.0227	
1012.80000	-0.0229	
1013.00000	-0.0229	
1013.20000	-0.0230	
1013.40000	-0.0227	
1013.60000	-0.0226	
1013.80000	-0.0221	
1014.00000	-0.0220	
1014.20000	-0.0221	
1014.40000	-0.0218	
1014.60000	-0.0217	
1014.80000	-0.0214	
1015.00000	-0.0214	
1015.20000	-0.0209	
1015.40000	-0.0206	
1015.60000	-0.0204	
1015.80000	-0.0198	
1016.00000	-0.0194	
1016.20000	-0.0191	
1016.40000	-0.0188	
1016.60000	-0.0182	
1016.80000	-0.0175	
1017.00000	-0.0172	
1017.20000	-0.0168	
1017.40000	-0.0160	
1017.60000	-0.0154	
1017.80000	-0.0148	
1018.00000	-0.0142	
1018.20000	-0.0134	
1018.40000	-0.0127	
1018.60000	-0.0119	
1018.80000	-0.0111	
1019.00000	-0.0105	
1019.20000	-0.0098	
1019.40000	-0.0090	
1019.60000	-0.0084	
1019.80000	-0.0073	
1020.00000	-0.0067	
1020.20000	-0.0058	
1020.40000	-0.0050	
1020.60000	-0.0044	
1020.80000	-0.0038	
1021.00000	-0.0035	
1021.20000	-0.0027	
1021.40000	-0.0020	
1021.60000	-0.0009	
1021.80000	-0.0008	
1022.00000	-0.0005	
1022.20000	 0.0000	
1022.40000	 0.0000	
1022.60000	 0.0005	
1022.80000	 0.0017	
1023.00000	 0.0021	
1023.20000	 0.0024	
1023.40000	 0.0034	
1023.60000	 0.0038	
1023.80000	 0.0043	
1024.00000	 0.0047	
1024.20000	 0.0056	
1024.40000	 0.0060	
1024.60000	 0.0066	
1024.80000	 0.0067	
1025.00000	 0.0066	
1025.20000	 0.0067	
1025.40000	 0.0064	
1025.60000	 0.0064	
1025.80000	 0.0063	
1026.00000	 0.0061	
1026.20000	 0.0058	
1026.40000	 0.0053	
1026.60000	 0.0055	
1026.80000	 0.0052	
1027.00000	 0.0049	
1027.20000	 0.0046	
1027.40000	 0.0046	
1027.60000	 0.0043	
1027.80000	 0.0043	
1028.00000	 0.0041	
1028.20000	 0.0041	
1028.40000	 0.0040	
1028.60000	 0.0037	
1028.80000	 0.0035	
1029.00000	 0.0034	
1029.20000	 0.0029	
1029.40000	 0.0032	
1029.60000	 0.0029	
1029.80000	 0.0034	
1030.00000	 0.0029	
1030.20000	 0.0032	
1030.40000	 0.0038	
1030.60000	 0.0037	
1030.80000	 0.0035	
1031.00000	 0.0041	
1031.20000	 0.0041	
1031.40000	 0.0044	
1031.60000	 0.0043	
1031.80000	 0.0047	
1032.00000	 0.0052	
1032.20000	 0.0052	
1032.40000	 0.0055	
1032.60000	 0.0060	
1032.80000	 0.0061	
1033.00000	 0.0066	
1033.20000	 0.0070	
1033.40000	 0.0075	
1033.60000	 0.0076	
1033.80000	 0.0078	
1034.00000	 0.0084	
1034.20000	 0.0087	
1034.40000	 0.0092	
1034.60000	 0.0095	
1034.80000	 0.0101	
1035.00000	 0.0105	
1035.20000	 0.0113	
1035.40000	 0.0116	
1035.60000	 0.0122	
1035.80000	 0.0128	
1036.00000	 0.0130	
1036.20000	 0.0134	
1036.40000	 0.0145	
1036.60000	 0.0148	
1036.80000	 0.0153	
1037.00000	 0.0159	
1037.20000	 0.0160	
1037.40000	 0.0165	
1037.60000	 0.0168	
1037.80000	 0.0171	
1038.00000	 0.0175	
1038.20000	 0.0182	
1038.40000	 0.0185	
1038.60000	 0.0182	
1038.80000	 0.0183	
1039.00000	 0.0182	
1039.20000	 0.0185	
1039.40000	 0.0186	
1039.60000	 0.0189	
1039.80000	 0.0192	
1040.00000	 0.0189	
1040.20000	 0.0188	
1040.40000	 0.0191	
1040.60000	 0.0189	
1040.80000	 0.0189	
1041.00000	 0.0192	
1041.20000	 0.0191	
1041.40000	 0.0186	
1041.60000	 0.0185	
1041.80000	 0.0175	
1042.00000	 0.0168	
1042.20000	 0.0160	
1042.40000	 0.0153	
1042.60000	 0.0143	
1042.80000	 0.0134	
1043.00000	 0.0128	
1043.20000	 0.0121	
1043.40000	 0.0111	
1043.60000	 0.0105	
1043.80000	 0.0098	
1044.00000	 0.0087	
1044.20000	 0.0081	
1044.40000	 0.0075	
1044.60000	 0.0064	
1044.80000	 0.0058	
1045.00000	 0.0049	
1045.20000	 0.0041	
1045.40000	 0.0034	
1045.60000	 0.0026	
1045.80000	 0.0021	
1046.00000	 0.0012	
1046.20000	 0.0003	
1046.40000	 0.0000	
1046.60000	-0.0008	
1046.80000	-0.0014	
1047.00000	-0.0020	
1047.20000	-0.0026	
1047.40000	-0.0035	
1047.60000	-0.0041	
1047.80000	-0.0050	
1048.00000	-0.0055	
1048.20000	-0.0061	
1048.40000	-0.0069	
1048.60000	-0.0072	
1048.80000	-0.0079	
1049.00000	-0.0082	
1049.20000	-0.0089	
1049.40000	-0.0092	
1049.60000	-0.0099	
1049.80000	-0.0105	
1050.00000	-0.0105	
1050.20000	-0.0111	
1050.40000	-0.0114	
1050.60000	-0.0121	
1050.80000	-0.0124	
1051.00000	-0.0125	
1051.20000	-0.0130	
1051.40000	-0.0131	
1051.60000	-0.0133	
1051.80000	-0.0133	
1052.00000	-0.0137	
1052.20000	-0.0142	
1052.40000	-0.0143	
1052.60000	-0.0148	
1052.80000	-0.0151	
1053.00000	-0.0150	
1053.20000	-0.0153	
1053.40000	-0.0157	
1053.60000	-0.0156	
1053.80000	-0.0156	
1054.00000	-0.0163	
1054.20000	-0.0163	
1054.40000	-0.0166	
1054.60000	-0.0169	
1054.80000	-0.0171	
1055.00000	-0.0174	
1055.20000	-0.0179	
1055.40000	-0.0185	
1055.60000	-0.0188	
1055.80000	-0.0197	
1056.00000	-0.0195	
1056.20000	-0.0198	
1056.40000	-0.0200	
1056.60000	-0.0208	
1056.80000	-0.0209	
1057.00000	-0.0212	
1057.20000	-0.0217	
1057.40000	-0.0220	
1057.60000	-0.0224	
1057.80000	-0.0233	
1058.00000	-0.0237	
1058.20000	-0.0247	
1058.40000	-0.0256	
1058.60000	-0.0262	
1058.80000	-0.0275	
1059.00000	-0.0285	
1059.20000	-0.0296	
1059.40000	-0.0307	
1059.60000	-0.0319	
1059.80000	-0.0327	
1060.00000	-0.0339	
1060.20000	-0.0348	
1060.40000	-0.0360	
1060.60000	-0.0368	
1060.80000	-0.0377	
1061.00000	-0.0388	
1061.20000	-0.0398	
1061.40000	-0.0404	
1061.60000	-0.0415	
1061.80000	-0.0421	
1062.00000	-0.0430	
1062.20000	-0.0439	
1062.40000	-0.0453	
1062.60000	-0.0462	
1062.80000	-0.0470	
1063.00000	-0.0473	
1063.20000	-0.0484	
1063.40000	-0.0485	
1063.60000	-0.0491	
1063.80000	-0.0497	
1064.00000	-0.0505	
1064.20000	-0.0511	
1064.40000	-0.0514	
1064.60000	-0.0517	
1064.80000	-0.0523	
1065.00000	-0.0526	
1065.20000	-0.0533	
1065.40000	-0.0536	
1065.60000	-0.0539	
1065.80000	-0.0539	
1066.00000	-0.0545	
1066.20000	-0.0546	
1066.40000	-0.0551	
1066.60000	-0.0549	
1066.80000	-0.0549	
1067.00000	-0.0552	
1067.20000	-0.0552	
1067.40000	-0.0554	
1067.60000	-0.0558	
1067.80000	-0.0557	
1068.00000	-0.0554	
1068.20000	-0.0552	
1068.40000	-0.0552	
1068.60000	-0.0548	
1068.80000	-0.0551	
1069.00000	-0.0552	
1069.20000	-0.0548	
1069.40000	-0.0552	
1069.60000	-0.0548	
1069.80000	-0.0546	
1070.00000	-0.0540	
1070.20000	-0.0540	
1070.40000	-0.0539	
1070.60000	-0.0536	
1070.80000	-0.0536	
1071.00000	-0.0536	
1071.20000	-0.0531	
1071.40000	-0.0531	
1071.60000	-0.0529	
1071.80000	-0.0526	
1072.00000	-0.0533	
1072.20000	-0.0533	
1072.40000	-0.0528	
1072.60000	-0.0526	
1072.80000	-0.0525	
1073.00000	-0.0519	
1073.20000	-0.0522	
1073.40000	-0.0522	
1073.60000	-0.0522	
1073.80000	-0.0517	
1074.00000	-0.0517	
1074.20000	-0.0516	
1074.40000	-0.0517	
1074.60000	-0.0516	
1074.80000	-0.0516	
1075.00000	-0.0523	
1075.20000	-0.0525	
1075.40000	-0.0533	
1075.60000	-0.0534	
1075.80000	-0.0540	
1076.00000	-0.0549	
1076.20000	-0.0555	
1076.40000	-0.0562	
1076.60000	-0.0568	
1076.80000	-0.0572	
1077.00000	-0.0577	
1077.20000	-0.0578	
1077.40000	-0.0587	
1077.60000	-0.0592	
1077.80000	-0.0597	
1078.00000	-0.0601	
1078.20000	-0.0607	
1078.40000	-0.0612	
1078.60000	-0.0615	
1078.80000	-0.0621	
1079.00000	-0.0627	
1079.20000	-0.0630	
1079.40000	-0.0630	
1079.60000	-0.0636	
1079.80000	-0.0638	
1080.00000	-0.0639	
1080.20000	-0.0641	
1080.40000	-0.0641	
1080.60000	-0.0644	
1080.80000	-0.0645	
1081.00000	-0.0650	
1081.20000	-0.0648	
1081.40000	-0.0650	
1081.60000	-0.0650	
1081.80000	-0.0650	
1082.00000	-0.0652	
1082.20000	-0.0650	
1082.40000	-0.0648	
1082.60000	-0.0644	
1082.80000	-0.0645	
1083.00000	-0.0642	
1083.20000	-0.0641	
1083.40000	-0.0638	
1083.60000	-0.0638	
1083.80000	-0.0636	
1084.00000	-0.0633	
1084.20000	-0.0627	
1084.40000	-0.0623	
1084.60000	-0.0620	
1084.80000	-0.0613	
1085.00000	-0.0609	
1085.20000	-0.0606	
1085.40000	-0.0598	
1085.60000	-0.0592	
1085.80000	-0.0592	
1086.00000	-0.0586	
1086.20000	-0.0578	
1086.40000	-0.0572	
1086.60000	-0.0571	
1086.80000	-0.0565	
1087.00000	-0.0555	
1087.20000	-0.0552	
1087.40000	-0.0548	
1087.60000	-0.0540	
1087.80000	-0.0537	
1088.00000	-0.0529	
1088.20000	-0.0528	
1088.40000	-0.0519	
1088.60000	-0.0517	
1088.80000	-0.0517	
1089.00000	-0.0513	
1089.20000	-0.0510	
1089.40000	-0.0507	
1089.60000	-0.0500	
1089.80000	-0.0496	
1090.00000	-0.0496	
1090.20000	-0.0490	
1090.40000	-0.0484	
1090.60000	-0.0484	
1090.80000	-0.0479	
1091.00000	-0.0473	
1091.20000	-0.0475	
1091.40000	-0.0471	
1091.60000	-0.0471	
1091.80000	-0.0473	
1092.00000	-0.0476	
1092.20000	-0.0476	
1092.40000	-0.0484	
1092.60000	-0.0485	
1092.80000	-0.0488	
1093.00000	-0.0491	
1093.20000	-0.0493	
1093.40000	-0.0500	
1093.60000	-0.0504	
1093.80000	-0.0505	
1094.00000	-0.0508	
1094.20000	-0.0511	
1094.40000	-0.0513	
1094.60000	-0.0519	
1094.80000	-0.0516	
1095.00000	-0.0519	
1095.20000	-0.0525	
1095.40000	-0.0525	
1095.60000	-0.0531	
1095.80000	-0.0528	
1096.00000	-0.0531	
1096.20000	-0.0531	
1096.40000	-0.0533	
1096.60000	-0.0534	
1096.80000	-0.0534	
1097.00000	-0.0531	
1097.20000	-0.0531	
1097.40000	-0.0531	
1097.60000	-0.0528	
1097.80000	-0.0531	
1098.00000	-0.0526	
1098.20000	-0.0523	
1098.40000	-0.0523	
1098.60000	-0.0522	
1098.80000	-0.0519	
1099.00000	-0.0517	
1099.20000	-0.0514	
1099.40000	-0.0508	
1099.60000	-0.0510	
1099.80000	-0.0504	
1100.00000	-0.0497	
1100.20000	-0.0493	
1100.40000	-0.0488	
1100.60000	-0.0487	
1100.80000	-0.0479	
1101.00000	-0.0476	
1101.20000	-0.0470	
1101.40000	-0.0462	
1101.60000	-0.0459	
1101.80000	-0.0449	
1102.00000	-0.0444	
1102.20000	-0.0438	
1102.40000	-0.0432	
1102.60000	-0.0427	
1102.80000	-0.0420	
1103.00000	-0.0412	
1103.20000	-0.0403	
1103.40000	-0.0395	
1103.60000	-0.0391	
1103.80000	-0.0385	
1104.00000	-0.0380	
1104.20000	-0.0369	
1104.40000	-0.0368	
1104.60000	-0.0362	
1104.80000	-0.0357	
1105.00000	-0.0348	
1105.20000	-0.0343	
1105.40000	-0.0345	
1105.60000	-0.0342	
1105.80000	-0.0334	
1106.00000	-0.0327	
1106.20000	-0.0319	
1106.40000	-0.0316	
1106.60000	-0.0311	
1106.80000	-0.0307	
1107.00000	-0.0302	
1107.20000	-0.0299	
1107.40000	-0.0294	
1107.60000	-0.0293	
1107.80000	-0.0285	
1108.00000	-0.0284	
1108.20000	-0.0281	
1108.40000	-0.0288	
1108.60000	-0.0284	
1108.80000	-0.0291	
1109.00000	-0.0296	
1109.20000	-0.0298	
1109.40000	-0.0301	
1109.60000	-0.0305	
1109.80000	-0.0305	
1110.00000	-0.0313	
1110.20000	-0.0314	
1110.40000	-0.0313	
1110.60000	-0.0316	
1110.80000	-0.0319	
1111.00000	-0.0322	
1111.20000	-0.0323	
1111.40000	-0.0322	
1111.60000	-0.0327	
1111.80000	-0.0328	
1112.00000	-0.0333	
1112.20000	-0.0333	
1112.40000	-0.0337	
1112.60000	-0.0339	
1112.80000	-0.0340	
1113.00000	-0.0342	
1113.20000	-0.0342	
1113.40000	-0.0343	
1113.60000	-0.0346	
1113.80000	-0.0345	
1114.00000	-0.0345	
1114.20000	-0.0346	
1114.40000	-0.0346	
1114.60000	-0.0345	
1114.80000	-0.0342	
1115.00000	-0.0345	
1115.20000	-0.0345	
1115.40000	-0.0339	
1115.60000	-0.0340	
1115.80000	-0.0334	
1116.00000	-0.0331	
1116.20000	-0.0328	
1116.40000	-0.0325	
1116.60000	-0.0322	
1116.80000	-0.0320	
1117.00000	-0.0319	
1117.20000	-0.0314	
1117.40000	-0.0310	
1117.60000	-0.0307	
1117.80000	-0.0301	
1118.00000	-0.0294	
1118.20000	-0.0291	
1118.40000	-0.0284	
1118.60000	-0.0278	
1118.80000	-0.0275	
1119.00000	-0.0272	
1119.20000	-0.0269	
1119.40000	-0.0261	
1119.60000	-0.0253	
1119.80000	-0.0252	
1120.00000	-0.0243	
1120.20000	-0.0238	
1120.40000	-0.0232	
1120.60000	-0.0226	
1120.80000	-0.0221	
1121.00000	-0.0218	
1121.20000	-0.0215	
1121.40000	-0.0209	
1121.60000	-0.0206	
1121.80000	-0.0203	
1122.00000	-0.0200	
1122.20000	-0.0200	
1122.40000	-0.0197	
1122.60000	-0.0194	
1122.80000	-0.0191	
1123.00000	-0.0185	
1123.20000	-0.0182	
1123.40000	-0.0175	
1123.60000	-0.0172	
1123.80000	-0.0174	
1124.00000	-0.0171	
1124.20000	-0.0168	
1124.40000	-0.0166	
1124.60000	-0.0166	
1124.80000	-0.0165	
1125.00000	-0.0166	
1125.20000	-0.0169	
1125.40000	-0.0175	
1125.60000	-0.0177	
1125.80000	-0.0182	
1126.00000	-0.0185	
1126.20000	-0.0188	
1126.40000	-0.0191	
1126.60000	-0.0198	
1126.80000	-0.0200	
1127.00000	-0.0206	
1127.20000	-0.0211	
1127.40000	-0.0217	
1127.60000	-0.0220	
1127.80000	-0.0224	
1128.00000	-0.0226	
1128.20000	-0.0230	
1128.40000	-0.0233	
1128.60000	-0.0238	
1128.80000	-0.0246	
1129.00000	-0.0247	
1129.20000	-0.0249	
1129.40000	-0.0255	
1129.60000	-0.0256	
1129.80000	-0.0258	
1130.00000	-0.0259	
1130.20000	-0.0261	
1130.40000	-0.0262	
1130.60000	-0.0267	
1130.80000	-0.0267	
1131.00000	-0.0270	
1131.20000	-0.0269	
1131.40000	-0.0273	
1131.60000	-0.0273	
1131.80000	-0.0273	
1132.00000	-0.0273	
1132.20000	-0.0275	
1132.40000	-0.0273	
1132.60000	-0.0275	
1132.80000	-0.0273	
1133.00000	-0.0272	
1133.20000	-0.0270	
1133.40000	-0.0269	
1133.60000	-0.0267	
1133.80000	-0.0261	
1134.00000	-0.0258	
1134.20000	-0.0259	
1134.40000	-0.0255	
1134.60000	-0.0250	
1134.80000	-0.0246	
1135.00000	-0.0243	
1135.20000	-0.0237	
1135.40000	-0.0235	
1135.60000	-0.0229	
1135.80000	-0.0227	
1136.00000	-0.0218	
1136.20000	-0.0215	
1136.40000	-0.0212	
1136.60000	-0.0208	
1136.80000	-0.0203	
1137.00000	-0.0200	
1137.20000	-0.0197	
1137.40000	-0.0195	
1137.60000	-0.0191	
1137.80000	-0.0186	
1138.00000	-0.0185	
1138.20000	-0.0182	
1138.40000	-0.0175	
1138.60000	-0.0175	
1138.80000	-0.0172	
1139.00000	-0.0175	
1139.20000	-0.0171	
1139.40000	-0.0166	
1139.60000	-0.0160	
1139.80000	-0.0156	
1140.00000	-0.0154	
1140.20000	-0.0153	
1140.40000	-0.0150	
1140.60000	-0.0148	
1140.80000	-0.0145	
1141.00000	-0.0145	
1141.20000	-0.0146	
1141.40000	-0.0146	
1141.60000	-0.0148	
1141.80000	-0.0151	
1142.00000	-0.0156	
1142.20000	-0.0163	
1142.40000	-0.0171	
1142.60000	-0.0172	
1142.80000	-0.0177	
1143.00000	-0.0185	
1143.20000	-0.0191	
1143.40000	-0.0194	
1143.60000	-0.0200	
1143.80000	-0.0204	
1144.00000	-0.0206	
1144.20000	-0.0212	
1144.40000	-0.0218	
1144.60000	-0.0224	
1144.80000	-0.0227	
1145.00000	-0.0233	
1145.20000	-0.0237	
1145.40000	-0.0243	
1145.60000	-0.0247	
1145.80000	-0.0252	
1146.00000	-0.0255	
1146.20000	-0.0258	
1146.40000	-0.0261	
1146.60000	-0.0267	
1146.80000	-0.0269	
1147.00000	-0.0270	
1147.20000	-0.0270	
1147.40000	-0.0275	
1147.60000	-0.0275	
1147.80000	-0.0276	
1148.00000	-0.0279	
1148.20000	-0.0279	
1148.40000	-0.0282	
1148.60000	-0.0282	
1148.80000	-0.0281	
1149.00000	-0.0282	
1149.20000	-0.0281	
1149.40000	-0.0282	
1149.60000	-0.0281	
1149.80000	-0.0279	
1150.00000	-0.0278	
1150.20000	-0.0278	
1150.40000	-0.0278	
1150.60000	-0.0270	
1150.80000	-0.0272	
1151.00000	-0.0270	
1151.20000	-0.0267	
1151.40000	-0.0261	
1151.60000	-0.0255	
1151.80000	-0.0252	
1152.00000	-0.0246	
1152.20000	-0.0246	
1152.40000	-0.0240	
1152.60000	-0.0237	
1152.80000	-0.0233	
1153.00000	-0.0229	
1153.20000	-0.0226	
1153.40000	-0.0221	
1153.60000	-0.0220	
1153.80000	-0.0211	
1154.00000	-0.0211	
1154.20000	-0.0209	
1154.40000	-0.0208	
1154.60000	-0.0198	
1154.80000	-0.0194	
1155.00000	-0.0194	
1155.20000	-0.0192	
1155.40000	-0.0197	
1155.60000	-0.0195	
1155.80000	-0.0192	
1156.00000	-0.0189	
1156.20000	-0.0188	
1156.40000	-0.0185	
1156.60000	-0.0177	
1156.80000	-0.0182	
1157.00000	-0.0177	
1157.20000	-0.0175	
1157.40000	-0.0174	
1157.60000	-0.0174	
1157.80000	-0.0174	
1158.00000	-0.0175	
1158.20000	-0.0182	
1158.40000	-0.0183	
1158.60000	-0.0189	
1158.80000	-0.0194	
1159.00000	-0.0200	
1159.20000	-0.0204	
1159.40000	-0.0209	
1159.60000	-0.0214	
1159.80000	-0.0218	
1160.00000	-0.0226	
1160.20000	-0.0235	
1160.40000	-0.0237	
1160.60000	-0.0241	
1160.80000	-0.0249	
1161.00000	-0.0256	
1161.20000	-0.0258	
1161.40000	-0.0262	
1161.60000	-0.0272	
1161.80000	-0.0273	
1162.00000	-0.0276	
1162.20000	-0.0276	
1162.40000	-0.0288	
1162.60000	-0.0288	
1162.80000	-0.0288	
1163.00000	-0.0293	
1163.20000	-0.0296	
1163.40000	-0.0298	
1163.60000	-0.0298	
1163.80000	-0.0301	
1164.00000	-0.0305	
1164.20000	-0.0305	
1164.40000	-0.0305	
1164.60000	-0.0310	
1164.80000	-0.0310	
1165.00000	-0.0307	
1165.20000	-0.0307	
1165.40000	-0.0307	
1165.60000	-0.0307	
1165.80000	-0.0302	
1166.00000	-0.0302	
1166.20000	-0.0302	
1166.40000	-0.0301	
1166.60000	-0.0299	
1166.80000	-0.0296	
1167.00000	-0.0298	
1167.20000	-0.0293	
1167.40000	-0.0290	
1167.60000	-0.0290	
1167.80000	-0.0288	
1168.00000	-0.0282	
1168.20000	-0.0279	
1168.40000	-0.0273	
1168.60000	-0.0272	
1168.80000	-0.0269	
1169.00000	-0.0262	
1169.20000	-0.0261	
1169.40000	-0.0256	
1169.60000	-0.0253	
1169.80000	-0.0247	
1170.00000	-0.0243	
1170.20000	-0.0240	
1170.40000	-0.0235	
1170.60000	-0.0232	
1170.80000	-0.0227	
1171.00000	-0.0232	
1171.20000	-0.0226	
1171.40000	-0.0224	
1171.60000	-0.0218	
1171.80000	-0.0218	
1172.00000	-0.0218	
1172.20000	-0.0220	
1172.40000	-0.0217	
1172.60000	-0.0217	
1172.80000	-0.0212	
1173.00000	-0.0208	
1173.20000	-0.0206	
1173.40000	-0.0206	
1173.60000	-0.0204	
1173.80000	-0.0203	
1174.00000	-0.0204	
1174.20000	-0.0200	
1174.40000	-0.0198	
1174.60000	-0.0200	
1174.80000	-0.0200	
1175.00000	-0.0203	
1175.20000	-0.0209	
1175.40000	-0.0214	
1175.60000	-0.0217	
1175.80000	-0.0224	
1176.00000	-0.0229	
1176.20000	-0.0237	
1176.40000	-0.0241	
1176.60000	-0.0249	
1176.80000	-0.0253	
1177.00000	-0.0256	
1177.20000	-0.0262	
1177.40000	-0.0267	
1177.60000	-0.0272	
1177.80000	-0.0276	
1178.00000	-0.0279	
1178.20000	-0.0282	
1178.40000	-0.0288	
1178.60000	-0.0291	
1178.80000	-0.0298	
1179.00000	-0.0302	
1179.20000	-0.0302	
1179.40000	-0.0305	
1179.60000	-0.0310	
1179.80000	-0.0313	
1180.00000	-0.0316	
1180.20000	-0.0314	
1180.40000	-0.0319	
1180.60000	-0.0320	
1180.80000	-0.0319	
1181.00000	-0.0322	
1181.20000	-0.0317	
1181.40000	-0.0322	
1181.60000	-0.0325	
1181.80000	-0.0327	
1182.00000	-0.0325	
1182.20000	-0.0322	
1182.40000	-0.0323	
1182.60000	-0.0322	
1182.80000	-0.0319	
1183.00000	-0.0317	
1183.20000	-0.0319	
1183.40000	-0.0314	
1183.60000	-0.0313	
1183.80000	-0.0314	
1184.00000	-0.0311	
1184.20000	-0.0307	
1184.40000	-0.0302	
1184.60000	-0.0301	
1184.80000	-0.0299	
1185.00000	-0.0293	
1185.20000	-0.0290	
1185.40000	-0.0285	
1185.60000	-0.0281	
1185.80000	-0.0278	
1186.00000	-0.0275	
1186.20000	-0.0272	
1186.40000	-0.0267	
1186.60000	-0.0262	
1186.80000	-0.0256	
1187.00000	-0.0252	
1187.20000	-0.0247	
1187.40000	-0.0246	
1187.60000	-0.0243	
1187.80000	-0.0238	
1188.00000	-0.0237	
1188.20000	-0.0230	
1188.40000	-0.0229	
1188.60000	-0.0226	
1188.80000	-0.0226	
1189.00000	-0.0230	
1189.20000	-0.0227	
1189.40000	-0.0220	
1189.60000	-0.0217	
1189.80000	-0.0212	
1190.00000	-0.0215	
1190.20000	-0.0211	
1190.40000	-0.0211	
1190.60000	-0.0209	
1190.80000	-0.0209	
1191.00000	-0.0208	
1191.20000	-0.0204	
1191.40000	-0.0208	
1191.60000	-0.0211	
1191.80000	-0.0212	
1192.00000	-0.0217	
1192.20000	-0.0226	
1192.40000	-0.0227	
1192.60000	-0.0229	
1192.80000	-0.0241	
1193.00000	-0.0241	
1193.20000	-0.0247	
1193.40000	-0.0252	
1193.60000	-0.0259	
1193.80000	-0.0262	
1194.00000	-0.0269	
1194.20000	-0.0275	
1194.40000	-0.0278	
1194.60000	-0.0281	
1194.80000	-0.0285	
1195.00000	-0.0285	
1195.20000	-0.0293	
1195.40000	-0.0294	
1195.60000	-0.0299	
1195.80000	-0.0302	
1196.00000	-0.0304	
1196.20000	-0.0313	
1196.40000	-0.0313	
1196.60000	-0.0314	
1196.80000	-0.0316	
1197.00000	-0.0319	
1197.20000	-0.0319	
1197.40000	-0.0320	
1197.60000	-0.0323	
1197.80000	-0.0325	
1198.00000	-0.0327	
1198.20000	-0.0328	
1198.40000	-0.0328	
1198.60000	-0.0331	
1198.80000	-0.0327	
1199.00000	-0.0328	
1199.20000	-0.0325	
1199.40000	-0.0328	
1199.60000	-0.0323	
1199.80000	-0.0322	
1200.00000	-0.0323	
1200.20000	-0.0317	
1200.40000	-0.0322	
1200.60000	-0.0316	
1200.80000	-0.0314	
1201.00000	-0.0313	
1201.20000	-0.0305	
1201.40000	-0.0301	
1201.60000	-0.0301	
1201.80000	-0.0294	
1202.00000	-0.0291	
1202.20000	-0.0288	
1202.40000	-0.0284	
1202.60000	-0.0281	
1202.80000	-0.0276	
1203.00000	-0.0269	
1203.20000	-0.0264	
1203.40000	-0.0264	
1203.60000	-0.0258	
1203.80000	-0.0253	
1204.00000	-0.0250	
1204.20000	-0.0252	
1204.40000	-0.0249	
1204.60000	-0.0241	
1204.80000	-0.0240	
1205.00000	-0.0237	
1205.20000	-0.0237	
1205.40000	-0.0240	
1205.60000	-0.0235	
1205.80000	-0.0230	
1206.00000	-0.0229	
1206.20000	-0.0221	
1206.40000	-0.0220	
1206.60000	-0.0220	
1206.80000	-0.0217	
1207.00000	-0.0215	
1207.20000	-0.0215	
1207.40000	-0.0215	
1207.60000	-0.0212	
1207.80000	-0.0211	
1208.00000	-0.0212	
1208.20000	-0.0215	
1208.40000	-0.0218	
1208.60000	-0.0220	
1208.80000	-0.0227	
1209.00000	-0.0235	
1209.20000	-0.0238	
1209.40000	-0.0246	
1209.60000	-0.0249	
1209.80000	-0.0253	
1210.00000	-0.0261	
1210.20000	-0.0264	
1210.40000	-0.0270	
1210.60000	-0.0273	
1210.80000	-0.0278	
1211.00000	-0.0282	
1211.20000	-0.0285	
1211.40000	-0.0290	
1211.60000	-0.0294	
1211.80000	-0.0299	
1212.00000	-0.0301	
1212.20000	-0.0305	
1212.40000	-0.0313	
1212.60000	-0.0311	
1212.80000	-0.0317	
1213.00000	-0.0322	
1213.20000	-0.0320	
1213.40000	-0.0323	
1213.60000	-0.0322	
1213.80000	-0.0322	
1214.00000	-0.0325	
1214.20000	-0.0325	
1214.40000	-0.0327	
1214.60000	-0.0333	
1214.80000	-0.0328	
1215.00000	-0.0333	
1215.20000	-0.0333	
1215.40000	-0.0336	
1215.60000	-0.0334	
1215.80000	-0.0328	
1216.00000	-0.0331	
1216.20000	-0.0328	
1216.40000	-0.0322	
1216.60000	-0.0323	
1216.80000	-0.0320	
1217.00000	-0.0320	
1217.20000	-0.0319	
1217.40000	-0.0317	
1217.60000	-0.0314	
1217.80000	-0.0311	
1218.00000	-0.0305	
1218.20000	-0.0304	
1218.40000	-0.0299	
1218.60000	-0.0296	
1218.80000	-0.0290	
1219.00000	-0.0285	
1219.20000	-0.0285	
1219.40000	-0.0281	
1219.60000	-0.0273	
1219.80000	-0.0273	
1220.00000	-0.0267	
1220.20000	-0.0262	
1220.40000	-0.0258	
1220.60000	-0.0253	
1220.80000	-0.0252	
1221.00000	-0.0250	
1221.20000	-0.0247	
1221.40000	-0.0241	
1221.60000	-0.0237	
1221.80000	-0.0233	
1222.00000	-0.0238	
1222.20000	-0.0237	
1222.40000	-0.0235	
1222.60000	-0.0232	
1222.80000	-0.0227	
1223.00000	-0.0224	
1223.20000	-0.0221	
1223.40000	-0.0217	
1223.60000	-0.0217	
1223.80000	-0.0217	
1224.00000	-0.0217	
1224.20000	-0.0212	
1224.40000	-0.0211	
1224.60000	-0.0212	
1224.80000	-0.0215	
1225.00000	-0.0217	
1225.20000	-0.0226	
1225.40000	-0.0230	
1225.60000	-0.0232	
1225.80000	-0.0243	
1226.00000	-0.0249	
1226.20000	-0.0252	
1226.40000	-0.0255	
1226.60000	-0.0262	
1226.80000	-0.0269	
1227.00000	-0.0270	
1227.20000	-0.0276	
1227.40000	-0.0281	
1227.60000	-0.0288	
1227.80000	-0.0290	
1228.00000	-0.0293	
1228.20000	-0.0298	
1228.40000	-0.0304	
1228.60000	-0.0302	
1228.80000	-0.0311	
1229.00000	-0.0314	
1229.20000	-0.0316	
1229.40000	-0.0316	
1229.60000	-0.0320	
1229.80000	-0.0322	
1230.00000	-0.0325	
1230.20000	-0.0325	
1230.40000	-0.0327	
1230.60000	-0.0328	
1230.80000	-0.0331	
1231.00000	-0.0334	
1231.20000	-0.0333	
1231.40000	-0.0333	
1231.60000	-0.0334	
1231.80000	-0.0334	
1232.00000	-0.0333	
1232.20000	-0.0334	
1232.40000	-0.0331	
1232.60000	-0.0328	
1232.80000	-0.0331	
1233.00000	-0.0331	
1233.20000	-0.0323	
1233.40000	-0.0322	
1233.60000	-0.0322	
1233.80000	-0.0322	
1234.00000	-0.0317	
1234.20000	-0.0316	
1234.40000	-0.0313	
1234.60000	-0.0311	
1234.80000	-0.0305	
1235.00000	-0.0301	
1235.20000	-0.0299	
1235.40000	-0.0296	
1235.60000	-0.0291	
1235.80000	-0.0288	
1236.00000	-0.0285	
1236.20000	-0.0279	
1236.40000	-0.0276	
1236.60000	-0.0273	
1236.80000	-0.0269	
1237.00000	-0.0261	
