______________________	______________________	______________________	______________________	______________________	______________________	______________________	______________________	______________________	
data file :	C:\emka\iox_2_9_5_73\data\20190517-piga.mkt
saved on :	
______________________	______________________	______________________	______________________	______________________	______________________	______________________	______________________	______________________	
printed on :	june   6, 2019, at  10: 57: 05
export mode :	to text file
print author :	no_logged_user
print com :	no available comment
ecgAuto version :	3.3.5.6 []
original sample freq (Hz) :
	 ECG	5000
	 Pig Aortic Pressure	1000
	 Cam Fire	500
	 Bloom A	500
	 Bloom B	500
	 CFR	1000
undersampling factor :		1
print sample freq (Hz) :		5000
______________________	______________________	______________________	______________________	______________________	______________________	______________________	______________________	______________________	

time ms	 ECG	
	V	


...................	...................	...................	...................	...................	...................	...................	...................	...................	...................	...................	...................	...................	
zone-start :	exp_JoVE-TestLV	time duration s :	00.00000	data duration s :	15.00000	stream section :	1
in-period :	op 1, p 1, r 1, p[r] 1	Noname #1	0.00e+00	
start period-time :	  00:43:32.985
start CPU time :	may  17, 2019, 14: 00: 20
start site-time :	  00:43:32.986
...................	...................	...................	...................	...................	...................	...................	...................	...................	...................	...................	...................	...................	
0.20000	 0.2875	
0.40000	 0.2869	
0.60000	 0.2855	
0.80000	 0.2843	
1.00000	 0.2827	
1.20000	 0.2815	
1.40000	 0.2803	
1.60000	 0.2768	
1.80000	 0.2730	
2.00000	 0.2673	
2.20000	 0.2603	
2.40000	 0.2547	
2.60000	 0.2495	
2.80000	 0.2451	
3.00000	 0.2408	
3.20000	 0.2359	
3.40000	 0.2312	
3.60000	 0.2263	
3.80000	 0.2209	
4.00000	 0.2162	
4.20000	 0.2115	
4.40000	 0.2074	
4.60000	 0.2028	
4.80000	 0.1985	
5.00000	 0.1955	
5.20000	 0.1920	
5.40000	 0.1891	
5.60000	 0.1852	
5.80000	 0.1823	
6.00000	 0.1801	
6.20000	 0.1772	
6.40000	 0.1735	
6.60000	 0.1712	
6.80000	 0.1688	
7.00000	 0.1651	
7.20000	 0.1610	
7.40000	 0.1582	
7.60000	 0.1561	
7.80000	 0.1546	
8.00000	 0.1540	
8.20000	 0.1544	
8.40000	 0.1546	
8.60000	 0.1555	
8.80000	 0.1558	
9.00000	 0.1576	
9.20000	 0.1591	
9.40000	 0.1611	
9.60000	 0.1636	
9.80000	 0.1672	
10.00000	 0.1720	
10.20000	 0.1788	
10.40000	 0.1828	
10.60000	 0.1863	
10.80000	 0.1903	
11.00000	 0.1939	
11.20000	 0.1982	
11.40000	 0.2025	
11.60000	 0.2072	
11.80000	 0.2112	
12.00000	 0.2147	
12.20000	 0.2185	
12.40000	 0.2216	
12.60000	 0.2255	
12.80000	 0.2293	
13.00000	 0.2344	
13.20000	 0.2393	
13.40000	 0.2455	
13.60000	 0.2502	
13.80000	 0.2541	
14.00000	 0.2586	
14.20000	 0.2623	
14.40000	 0.2661	
14.60000	 0.2699	
14.80000	 0.2721	
15.00000	 0.2748	
15.20000	 0.2769	
15.40000	 0.2794	
15.60000	 0.2812	
15.80000	 0.2841	
16.00000	 0.2843	
16.20000	 0.2858	
16.40000	 0.2853	
16.60000	 0.2852	
16.80000	 0.2846	
17.00000	 0.2837	
17.20000	 0.2826	
17.40000	 0.2812	
17.60000	 0.2800	
17.80000	 0.2788	
18.00000	 0.2774	
18.20000	 0.2754	
18.40000	 0.2704	
18.60000	 0.2663	
18.80000	 0.2591	
19.00000	 0.2534	
19.20000	 0.2484	
19.40000	 0.2440	
19.60000	 0.2390	
19.80000	 0.2348	
20.00000	 0.2304	
20.20000	 0.2252	
20.40000	 0.2203	
20.60000	 0.2159	
20.80000	 0.2110	
21.00000	 0.2065	
21.20000	 0.2020	
21.40000	 0.1982	
21.60000	 0.1947	
21.80000	 0.1912	
22.00000	 0.1886	
22.20000	 0.1852	
22.40000	 0.1819	
22.60000	 0.1794	
22.80000	 0.1764	
23.00000	 0.1733	
23.20000	 0.1712	
23.40000	 0.1682	
23.60000	 0.1656	
23.80000	 0.1611	
24.00000	 0.1579	
24.20000	 0.1552	
24.40000	 0.1540	
24.60000	 0.1532	
24.80000	 0.1537	
25.00000	 0.1534	
25.20000	 0.1547	
25.40000	 0.1550	
25.60000	 0.1562	
25.80000	 0.1582	
26.00000	 0.1595	
26.20000	 0.1619	
26.40000	 0.1657	
26.60000	 0.1698	
26.80000	 0.1761	
27.00000	 0.1807	
27.20000	 0.1842	
27.40000	 0.1878	
27.60000	 0.1913	
27.80000	 0.1961	
28.00000	 0.2005	
28.20000	 0.2049	
28.40000	 0.2090	
28.60000	 0.2122	
28.80000	 0.2159	
29.00000	 0.2190	
29.20000	 0.2231	
29.40000	 0.2266	
29.60000	 0.2312	
29.80000	 0.2365	
30.00000	 0.2420	
30.20000	 0.2470	
30.40000	 0.2513	
30.60000	 0.2562	
30.80000	 0.2599	
31.00000	 0.2629	
31.20000	 0.2669	
31.40000	 0.2692	
31.60000	 0.2718	
31.80000	 0.2739	
32.00000	 0.2766	
32.20000	 0.2782	
32.40000	 0.2809	
32.60000	 0.2817	
32.80000	 0.2827	
33.00000	 0.2831	
33.20000	 0.2821	
33.40000	 0.2818	
33.60000	 0.2809	
33.80000	 0.2802	
34.00000	 0.2789	
34.20000	 0.2776	
34.40000	 0.2763	
34.60000	 0.2748	
34.80000	 0.2731	
35.00000	 0.2687	
35.20000	 0.2650	
35.40000	 0.2582	
35.60000	 0.2524	
35.80000	 0.2475	
36.00000	 0.2428	
36.20000	 0.2374	
36.40000	 0.2338	
36.60000	 0.2295	
36.80000	 0.2243	
37.00000	 0.2197	
37.20000	 0.2147	
37.40000	 0.2103	
37.60000	 0.2058	
37.80000	 0.2017	
38.00000	 0.1976	
38.20000	 0.1941	
38.40000	 0.1912	
38.60000	 0.1878	
38.80000	 0.1848	
39.00000	 0.1814	
39.20000	 0.1788	
39.40000	 0.1761	
39.60000	 0.1732	
39.80000	 0.1709	
40.00000	 0.1680	
40.20000	 0.1651	
40.40000	 0.1611	
40.60000	 0.1576	
40.80000	 0.1549	
41.00000	 0.1540	
41.20000	 0.1523	
41.40000	 0.1526	
41.60000	 0.1527	
41.80000	 0.1532	
42.00000	 0.1544	
42.20000	 0.1552	
42.40000	 0.1575	
42.60000	 0.1585	
42.80000	 0.1608	
43.00000	 0.1645	
43.20000	 0.1675	
43.40000	 0.1735	
43.60000	 0.1787	
43.80000	 0.1823	
44.00000	 0.1863	
44.20000	 0.1895	
44.40000	 0.1941	
44.60000	 0.1984	
44.80000	 0.2028	
45.00000	 0.2068	
45.20000	 0.2097	
45.40000	 0.2135	
45.60000	 0.2167	
45.80000	 0.2206	
46.00000	 0.2245	
46.20000	 0.2281	
46.40000	 0.2328	
46.60000	 0.2382	
46.80000	 0.2441	
47.00000	 0.2481	
47.20000	 0.2527	
47.40000	 0.2563	
47.60000	 0.2602	
47.80000	 0.2632	
48.00000	 0.2664	
48.20000	 0.2689	
48.40000	 0.2708	
48.60000	 0.2734	
48.80000	 0.2748	
49.00000	 0.2771	
49.20000	 0.2792	
49.40000	 0.2797	
49.60000	 0.2800	
49.80000	 0.2797	
50.00000	 0.2792	
50.20000	 0.2788	
50.40000	 0.2779	
50.60000	 0.2769	
50.80000	 0.2753	
51.00000	 0.2739	
51.20000	 0.2727	
51.40000	 0.2711	
51.60000	 0.2673	
51.80000	 0.2637	
52.00000	 0.2582	
52.20000	 0.2513	
52.40000	 0.2464	
52.60000	 0.2414	
52.80000	 0.2368	
53.00000	 0.2328	
53.20000	 0.2281	
53.40000	 0.2240	
53.60000	 0.2190	
53.80000	 0.2141	
54.00000	 0.2098	
54.20000	 0.2051	
54.40000	 0.2013	
54.60000	 0.1970	
54.80000	 0.1935	
55.00000	 0.1910	
55.20000	 0.1872	
55.40000	 0.1843	
55.60000	 0.1810	
55.80000	 0.1785	
56.00000	 0.1758	
56.20000	 0.1729	
56.40000	 0.1701	
56.60000	 0.1677	
56.80000	 0.1646	
57.00000	 0.1613	
57.20000	 0.1581	
57.40000	 0.1553	
57.60000	 0.1537	
57.80000	 0.1524	
58.00000	 0.1521	
58.20000	 0.1527	
58.40000	 0.1530	
58.60000	 0.1541	
58.80000	 0.1547	
59.00000	 0.1561	
59.20000	 0.1581	
59.40000	 0.1598	
59.60000	 0.1624	
59.80000	 0.1660	
60.00000	 0.1709	
60.20000	 0.1770	
60.40000	 0.1808	
60.60000	 0.1845	
60.80000	 0.1881	
61.00000	 0.1920	
61.20000	 0.1961	
61.40000	 0.2000	
61.60000	 0.2046	
61.80000	 0.2080	
62.00000	 0.2116	
62.20000	 0.2148	
62.40000	 0.2182	
62.60000	 0.2225	
62.80000	 0.2254	
63.00000	 0.2301	
63.20000	 0.2356	
63.40000	 0.2414	
63.60000	 0.2458	
63.80000	 0.2496	
64.00000	 0.2534	
64.20000	 0.2565	
64.40000	 0.2603	
64.60000	 0.2641	
64.80000	 0.2661	
65.00000	 0.2684	
65.20000	 0.2705	
65.40000	 0.2724	
65.60000	 0.2739	
65.80000	 0.2771	
66.00000	 0.2768	
66.20000	 0.2777	
66.40000	 0.2771	
66.60000	 0.2768	
66.80000	 0.2762	
67.00000	 0.2753	
67.20000	 0.2740	
67.40000	 0.2725	
67.60000	 0.2713	
67.80000	 0.2701	
68.00000	 0.2689	
68.20000	 0.2658	
68.40000	 0.2620	
68.60000	 0.2576	
68.80000	 0.2505	
69.00000	 0.2452	
69.20000	 0.2400	
69.40000	 0.2356	
69.60000	 0.2312	
69.80000	 0.2272	
70.00000	 0.2228	
70.20000	 0.2182	
70.40000	 0.2136	
70.60000	 0.2092	
70.80000	 0.2052	
71.00000	 0.2011	
71.20000	 0.1974	
71.40000	 0.1933	
71.60000	 0.1903	
71.80000	 0.1869	
72.00000	 0.1845	
72.20000	 0.1816	
72.40000	 0.1782	
72.60000	 0.1759	
72.80000	 0.1733	
73.00000	 0.1701	
73.20000	 0.1682	
73.40000	 0.1654	
73.60000	 0.1625	
73.80000	 0.1593	
74.00000	 0.1564	
74.20000	 0.1538	
74.40000	 0.1524	
74.60000	 0.1520	
74.80000	 0.1526	
75.00000	 0.1524	
75.20000	 0.1538	
75.40000	 0.1540	
75.60000	 0.1558	
75.80000	 0.1576	
76.00000	 0.1590	
76.20000	 0.1610	
76.40000	 0.1649	
76.60000	 0.1692	
76.80000	 0.1755	
77.00000	 0.1802	
77.20000	 0.1834	
77.40000	 0.1866	
77.60000	 0.1901	
77.80000	 0.1949	
78.00000	 0.1987	
78.20000	 0.2028	
78.40000	 0.2065	
78.60000	 0.2098	
78.80000	 0.2132	
79.00000	 0.2165	
79.20000	 0.2202	
79.40000	 0.2234	
79.60000	 0.2277	
79.80000	 0.2333	
80.00000	 0.2390	
80.20000	 0.2432	
80.40000	 0.2473	
80.60000	 0.2513	
80.80000	 0.2550	
81.00000	 0.2583	
81.20000	 0.2620	
81.40000	 0.2641	
81.60000	 0.2663	
81.80000	 0.2682	
82.00000	 0.2710	
82.20000	 0.2721	
82.40000	 0.2751	
82.60000	 0.2753	
82.80000	 0.2759	
83.00000	 0.2757	
83.20000	 0.2750	
83.40000	 0.2745	
83.60000	 0.2734	
83.80000	 0.2728	
84.00000	 0.2716	
84.20000	 0.2701	
84.40000	 0.2690	
84.60000	 0.2678	
84.80000	 0.2655	
85.00000	 0.2615	
85.20000	 0.2576	
85.40000	 0.2513	
85.60000	 0.2455	
85.80000	 0.2403	
86.00000	 0.2365	
86.20000	 0.2313	
86.40000	 0.2274	
86.60000	 0.2229	
86.80000	 0.2187	
87.00000	 0.2142	
87.20000	 0.2100	
87.40000	 0.2055	
87.60000	 0.2016	
87.80000	 0.1974	
88.00000	 0.1942	
88.20000	 0.1907	
88.40000	 0.1881	
88.60000	 0.1849	
88.80000	 0.1822	
89.00000	 0.1787	
89.20000	 0.1765	
89.40000	 0.1743	
89.60000	 0.1720	
89.80000	 0.1695	
90.00000	 0.1674	
90.20000	 0.1643	
90.40000	 0.1611	
90.60000	 0.1581	
90.80000	 0.1550	
91.00000	 0.1544	
91.20000	 0.1532	
91.40000	 0.1532	
91.60000	 0.1540	
91.80000	 0.1549	
92.00000	 0.1552	
92.20000	 0.1564	
92.40000	 0.1585	
92.60000	 0.1595	
92.80000	 0.1616	
93.00000	 0.1649	
93.20000	 0.1692	
93.40000	 0.1749	
93.60000	 0.1797	
93.80000	 0.1826	
94.00000	 0.1862	
94.20000	 0.1898	
94.40000	 0.1939	
94.60000	 0.1974	
94.80000	 0.2016	
95.00000	 0.2060	
95.20000	 0.2086	
95.40000	 0.2119	
95.60000	 0.2151	
95.80000	 0.2185	
96.00000	 0.2222	
96.20000	 0.2254	
96.40000	 0.2307	
96.60000	 0.2356	
96.80000	 0.2409	
97.00000	 0.2446	
97.20000	 0.2489	
97.40000	 0.2524	
97.60000	 0.2554	
97.80000	 0.2589	
98.00000	 0.2618	
98.20000	 0.2643	
98.40000	 0.2657	
98.60000	 0.2678	
98.80000	 0.2695	
99.00000	 0.2719	
99.20000	 0.2731	
99.40000	 0.2737	
99.60000	 0.2740	
99.80000	 0.2730	
100.00000	 0.2725	
100.20000	 0.2721	
100.40000	 0.2710	
100.60000	 0.2696	
100.80000	 0.2686	
101.00000	 0.2670	
101.20000	 0.2663	
101.40000	 0.2644	
101.60000	 0.2603	
101.80000	 0.2568	
102.00000	 0.2513	
102.20000	 0.2449	
102.40000	 0.2400	
102.60000	 0.2356	
102.80000	 0.2307	
103.00000	 0.2272	
103.20000	 0.2228	
103.40000	 0.2188	
103.60000	 0.2142	
103.80000	 0.2095	
104.00000	 0.2055	
104.20000	 0.2013	
104.40000	 0.1971	
104.60000	 0.1939	
104.80000	 0.1906	
105.00000	 0.1880	
105.20000	 0.1849	
105.40000	 0.1822	
105.60000	 0.1791	
105.80000	 0.1764	
106.00000	 0.1741	
106.20000	 0.1715	
106.40000	 0.1692	
106.60000	 0.1669	
106.80000	 0.1640	
107.00000	 0.1605	
107.20000	 0.1576	
107.40000	 0.1549	
107.60000	 0.1534	
107.80000	 0.1523	
108.00000	 0.1524	
108.20000	 0.1529	
108.40000	 0.1537	
108.60000	 0.1540	
108.80000	 0.1550	
109.00000	 0.1567	
109.20000	 0.1581	
109.40000	 0.1605	
109.60000	 0.1630	
109.80000	 0.1665	
110.00000	 0.1712	
110.20000	 0.1770	
110.40000	 0.1804	
110.60000	 0.1840	
110.80000	 0.1872	
111.00000	 0.1915	
111.20000	 0.1953	
111.40000	 0.1985	
111.60000	 0.2031	
111.80000	 0.2060	
112.00000	 0.2094	
112.20000	 0.2124	
112.40000	 0.2158	
112.60000	 0.2196	
112.80000	 0.2222	
113.00000	 0.2271	
113.20000	 0.2325	
113.40000	 0.2382	
113.60000	 0.2419	
113.80000	 0.2461	
114.00000	 0.2499	
114.20000	 0.2522	
114.40000	 0.2562	
114.60000	 0.2594	
114.80000	 0.2612	
115.00000	 0.2634	
115.20000	 0.2655	
115.40000	 0.2670	
115.60000	 0.2686	
115.80000	 0.2710	
116.00000	 0.2707	
116.20000	 0.2713	
116.40000	 0.2708	
116.60000	 0.2701	
116.80000	 0.2695	
117.00000	 0.2692	
117.20000	 0.2679	
117.40000	 0.2666	
117.60000	 0.2649	
117.80000	 0.2637	
118.00000	 0.2625	
118.20000	 0.2589	
118.40000	 0.2554	
118.60000	 0.2509	
118.80000	 0.2444	
119.00000	 0.2393	
119.20000	 0.2348	
119.40000	 0.2304	
119.60000	 0.2264	
119.80000	 0.2223	
120.00000	 0.2185	
120.20000	 0.2141	
120.40000	 0.2094	
120.60000	 0.2055	
120.80000	 0.2017	
121.00000	 0.1976	
121.20000	 0.1945	
121.40000	 0.1909	
121.60000	 0.1881	
121.80000	 0.1849	
122.00000	 0.1828	
122.20000	 0.1797	
122.40000	 0.1772	
122.60000	 0.1750	
122.80000	 0.1724	
123.00000	 0.1697	
123.20000	 0.1678	
123.40000	 0.1653	
123.60000	 0.1624	
123.80000	 0.1588	
124.00000	 0.1564	
124.20000	 0.1543	
124.40000	 0.1532	
124.60000	 0.1527	
124.80000	 0.1534	
125.00000	 0.1540	
125.20000	 0.1547	
125.40000	 0.1550	
125.60000	 0.1570	
125.80000	 0.1587	
126.00000	 0.1598	
126.20000	 0.1622	
126.40000	 0.1659	
126.60000	 0.1700	
126.80000	 0.1761	
127.00000	 0.1799	
127.20000	 0.1837	
127.40000	 0.1868	
127.60000	 0.1903	
127.80000	 0.1944	
128.00000	 0.1976	
128.20000	 0.2020	
128.40000	 0.2058	
128.60000	 0.2084	
128.80000	 0.2121	
129.00000	 0.2148	
129.20000	 0.2182	
129.40000	 0.2217	
129.60000	 0.2254	
129.80000	 0.2307	
130.00000	 0.2364	
130.20000	 0.2402	
130.40000	 0.2440	
130.60000	 0.2477	
130.80000	 0.2509	
131.00000	 0.2541	
131.20000	 0.2582	
131.40000	 0.2594	
131.60000	 0.2620	
131.80000	 0.2637	
132.00000	 0.2655	
132.20000	 0.2670	
132.40000	 0.2693	
132.60000	 0.2695	
132.80000	 0.2699	
133.00000	 0.2692	
133.20000	 0.2686	
133.40000	 0.2679	
133.60000	 0.2672	
133.80000	 0.2663	
134.00000	 0.2650	
134.20000	 0.2635	
134.40000	 0.2625	
134.60000	 0.2609	
134.80000	 0.2591	
135.00000	 0.2551	
135.20000	 0.2507	
135.40000	 0.2443	
135.60000	 0.2393	
135.80000	 0.2342	
136.00000	 0.2307	
136.20000	 0.2261	
136.40000	 0.2223	
136.60000	 0.2184	
136.80000	 0.2139	
137.00000	 0.2100	
137.20000	 0.2057	
137.40000	 0.2017	
137.60000	 0.1984	
137.80000	 0.1945	
138.00000	 0.1910	
138.20000	 0.1883	
138.40000	 0.1852	
138.60000	 0.1831	
138.80000	 0.1805	
139.00000	 0.1776	
139.20000	 0.1755	
139.40000	 0.1733	
139.60000	 0.1703	
139.80000	 0.1686	
140.00000	 0.1660	
140.20000	 0.1636	
140.40000	 0.1605	
140.60000	 0.1575	
140.80000	 0.1552	
141.00000	 0.1547	
141.20000	 0.1534	
141.40000	 0.1541	
141.60000	 0.1543	
141.80000	 0.1549	
142.00000	 0.1553	
142.20000	 0.1569	
142.40000	 0.1585	
142.60000	 0.1601	
142.80000	 0.1617	
143.00000	 0.1649	
143.20000	 0.1686	
143.40000	 0.1744	
143.60000	 0.1791	
143.80000	 0.1822	
144.00000	 0.1855	
144.20000	 0.1884	
144.40000	 0.1921	
144.60000	 0.1955	
144.80000	 0.1999	
145.00000	 0.2037	
145.20000	 0.2063	
145.40000	 0.2098	
145.60000	 0.2121	
145.80000	 0.2155	
146.00000	 0.2187	
146.20000	 0.2225	
146.40000	 0.2275	
146.60000	 0.2327	
146.80000	 0.2370	
147.00000	 0.2402	
147.20000	 0.2443	
147.40000	 0.2481	
147.60000	 0.2505	
147.80000	 0.2544	
148.00000	 0.2565	
148.20000	 0.2588	
148.40000	 0.2606	
148.60000	 0.2626	
148.80000	 0.2637	
149.00000	 0.2661	
149.20000	 0.2667	
149.40000	 0.2670	
149.60000	 0.2672	
149.80000	 0.2664	
150.00000	 0.2658	
150.20000	 0.2652	
150.40000	 0.2643	
150.60000	 0.2631	
150.80000	 0.2618	
151.00000	 0.2608	
151.20000	 0.2592	
151.40000	 0.2580	
151.60000	 0.2536	
151.80000	 0.2498	
152.00000	 0.2444	
152.20000	 0.2382	
152.40000	 0.2338	
152.60000	 0.2298	
152.80000	 0.2255	
153.00000	 0.2220	
153.20000	 0.2179	
153.40000	 0.2135	
153.60000	 0.2098	
153.80000	 0.2057	
154.00000	 0.2019	
154.20000	 0.1978	
154.40000	 0.1942	
154.60000	 0.1909	
154.80000	 0.1880	
155.00000	 0.1852	
155.20000	 0.1828	
155.40000	 0.1804	
155.60000	 0.1772	
155.80000	 0.1752	
156.00000	 0.1732	
156.20000	 0.1706	
156.40000	 0.1682	
156.60000	 0.1666	
156.80000	 0.1640	
157.00000	 0.1605	
157.20000	 0.1575	
157.40000	 0.1550	
157.60000	 0.1543	
157.80000	 0.1527	
158.00000	 0.1534	
158.20000	 0.1538	
158.40000	 0.1543	
158.60000	 0.1549	
158.80000	 0.1561	
159.00000	 0.1576	
159.20000	 0.1590	
159.40000	 0.1610	
159.60000	 0.1636	
159.80000	 0.1671	
160.00000	 0.1720	
160.20000	 0.1772	
160.40000	 0.1805	
160.60000	 0.1837	
160.80000	 0.1866	
161.00000	 0.1904	
161.20000	 0.1942	
161.40000	 0.1979	
161.60000	 0.2019	
161.80000	 0.2049	
162.00000	 0.2078	
162.20000	 0.2104	
162.40000	 0.2138	
162.60000	 0.2176	
162.80000	 0.2203	
163.00000	 0.2248	
163.20000	 0.2293	
163.40000	 0.2345	
163.60000	 0.2386	
163.80000	 0.2422	
164.00000	 0.2458	
164.20000	 0.2486	
164.40000	 0.2521	
164.60000	 0.2547	
164.80000	 0.2567	
165.00000	 0.2582	
165.20000	 0.2606	
165.40000	 0.2618	
165.60000	 0.2632	
165.80000	 0.2652	
166.00000	 0.2652	
166.20000	 0.2654	
166.40000	 0.2647	
166.60000	 0.2641	
166.80000	 0.2632	
167.00000	 0.2629	
167.20000	 0.2612	
167.40000	 0.2602	
167.60000	 0.2588	
167.80000	 0.2580	
168.00000	 0.2562	
168.20000	 0.2527	
168.40000	 0.2493	
168.60000	 0.2449	
168.80000	 0.2388	
169.00000	 0.2342	
169.20000	 0.2295	
169.40000	 0.2252	
169.60000	 0.2219	
169.80000	 0.2182	
170.00000	 0.2142	
170.20000	 0.2103	
170.40000	 0.2058	
170.60000	 0.2022	
170.80000	 0.1979	
171.00000	 0.1947	
171.20000	 0.1913	
171.40000	 0.1883	
171.60000	 0.1860	
171.80000	 0.1830	
172.00000	 0.1805	
172.20000	 0.1775	
172.40000	 0.1750	
172.60000	 0.1735	
172.80000	 0.1709	
173.00000	 0.1682	
173.20000	 0.1668	
173.40000	 0.1640	
173.60000	 0.1610	
173.80000	 0.1582	
174.00000	 0.1558	
174.20000	 0.1541	
174.40000	 0.1530	
174.60000	 0.1532	
174.80000	 0.1540	
175.00000	 0.1543	
175.20000	 0.1550	
175.40000	 0.1555	
175.60000	 0.1566	
175.80000	 0.1585	
176.00000	 0.1602	
176.20000	 0.1624	
176.40000	 0.1657	
176.60000	 0.1701	
176.80000	 0.1758	
177.00000	 0.1791	
177.20000	 0.1825	
177.40000	 0.1860	
177.60000	 0.1891	
177.80000	 0.1929	
178.00000	 0.1961	
178.20000	 0.1999	
178.40000	 0.2032	
178.60000	 0.2063	
178.80000	 0.2090	
179.00000	 0.2119	
179.20000	 0.2156	
179.40000	 0.2185	
179.60000	 0.2220	
179.80000	 0.2267	
180.00000	 0.2322	
180.20000	 0.2364	
180.40000	 0.2394	
180.60000	 0.2434	
180.80000	 0.2458	
181.00000	 0.2495	
181.20000	 0.2521	
181.40000	 0.2539	
181.60000	 0.2563	
181.80000	 0.2582	
182.00000	 0.2597	
182.20000	 0.2608	
182.40000	 0.2634	
182.60000	 0.2626	
182.80000	 0.2632	
183.00000	 0.2623	
183.20000	 0.2620	
183.40000	 0.2614	
183.60000	 0.2606	
183.80000	 0.2597	
184.00000	 0.2585	
184.20000	 0.2567	
184.40000	 0.2557	
184.60000	 0.2541	
184.80000	 0.2518	
185.00000	 0.2478	
185.20000	 0.2446	
185.40000	 0.2385	
185.60000	 0.2332	
185.80000	 0.2283	
186.00000	 0.2248	
186.20000	 0.2205	
186.40000	 0.2174	
186.60000	 0.2136	
186.80000	 0.2089	
187.00000	 0.2052	
187.20000	 0.2013	
187.40000	 0.1976	
187.60000	 0.1945	
187.80000	 0.1910	
188.00000	 0.1881	
188.20000	 0.1855	
188.40000	 0.1823	
188.60000	 0.1805	
188.80000	 0.1779	
189.00000	 0.1755	
189.20000	 0.1732	
189.40000	 0.1709	
189.60000	 0.1683	
189.80000	 0.1671	
190.00000	 0.1646	
190.20000	 0.1622	
190.40000	 0.1593	
190.60000	 0.1566	
190.80000	 0.1544	
191.00000	 0.1538	
191.20000	 0.1529	
191.40000	 0.1541	
191.60000	 0.1541	
191.80000	 0.1549	
192.00000	 0.1550	
192.20000	 0.1573	
192.40000	 0.1582	
192.60000	 0.1598	
192.80000	 0.1617	
193.00000	 0.1653	
193.20000	 0.1686	
193.40000	 0.1743	
193.60000	 0.1784	
193.80000	 0.1820	
194.00000	 0.1852	
194.20000	 0.1880	
194.40000	 0.1920	
194.60000	 0.1945	
194.80000	 0.1984	
195.00000	 0.2019	
195.20000	 0.2043	
195.40000	 0.2081	
195.60000	 0.2101	
195.80000	 0.2136	
196.00000	 0.2165	
196.20000	 0.2199	
196.40000	 0.2246	
196.60000	 0.2295	
196.80000	 0.2338	
197.00000	 0.2370	
197.20000	 0.2408	
197.40000	 0.2438	
197.60000	 0.2466	
197.80000	 0.2501	
198.00000	 0.2518	
198.20000	 0.2539	
198.40000	 0.2551	
198.60000	 0.2577	
198.80000	 0.2583	
199.00000	 0.2605	
199.20000	 0.2605	
199.40000	 0.2608	
199.60000	 0.2609	
199.80000	 0.2599	
200.00000	 0.2591	
200.20000	 0.2585	
200.40000	 0.2576	
200.60000	 0.2560	
200.80000	 0.2547	
201.00000	 0.2538	
201.20000	 0.2522	
201.40000	 0.2505	
201.60000	 0.2470	
201.80000	 0.2434	
202.00000	 0.2373	
202.20000	 0.2321	
202.40000	 0.2272	
202.60000	 0.2240	
202.80000	 0.2191	
203.00000	 0.2162	
203.20000	 0.2126	
203.40000	 0.2086	
203.60000	 0.2048	
203.80000	 0.2010	
204.00000	 0.1973	
204.20000	 0.1939	
204.40000	 0.1903	
204.60000	 0.1874	
204.80000	 0.1843	
205.00000	 0.1822	
205.20000	 0.1797	
205.40000	 0.1775	
205.60000	 0.1749	
205.80000	 0.1729	
206.00000	 0.1703	
206.20000	 0.1683	
206.40000	 0.1666	
206.60000	 0.1649	
206.80000	 0.1627	
207.00000	 0.1596	
207.20000	 0.1567	
207.40000	 0.1546	
207.60000	 0.1541	
207.80000	 0.1526	
208.00000	 0.1534	
208.20000	 0.1538	
208.40000	 0.1547	
208.60000	 0.1549	
208.80000	 0.1561	
209.00000	 0.1576	
209.20000	 0.1590	
209.40000	 0.1610	
209.60000	 0.1636	
209.80000	 0.1669	
210.00000	 0.1721	
210.20000	 0.1770	
210.40000	 0.1802	
210.60000	 0.1834	
210.80000	 0.1862	
211.00000	 0.1895	
211.20000	 0.1929	
211.40000	 0.1964	
211.60000	 0.2003	
211.80000	 0.2029	
212.00000	 0.2058	
212.20000	 0.2089	
212.40000	 0.2113	
212.60000	 0.2144	
212.80000	 0.2177	
213.00000	 0.2220	
213.20000	 0.2264	
213.40000	 0.2310	
213.60000	 0.2344	
213.80000	 0.2376	
214.00000	 0.2414	
214.20000	 0.2440	
214.40000	 0.2470	
214.60000	 0.2498	
214.80000	 0.2518	
215.00000	 0.2527	
215.20000	 0.2551	
215.40000	 0.2559	
215.60000	 0.2577	
215.80000	 0.2588	
216.00000	 0.2586	
216.20000	 0.2591	
216.40000	 0.2580	
216.60000	 0.2579	
216.80000	 0.2571	
217.00000	 0.2567	
217.20000	 0.2556	
217.40000	 0.2542	
217.60000	 0.2530	
217.80000	 0.2525	
218.00000	 0.2510	
218.20000	 0.2473	
218.40000	 0.2443	
218.60000	 0.2397	
218.80000	 0.2342	
219.00000	 0.2304	
219.20000	 0.2267	
219.40000	 0.2231	
219.60000	 0.2202	
219.80000	 0.2168	
220.00000	 0.2136	
220.20000	 0.2104	
220.40000	 0.2069	
220.60000	 0.2040	
220.80000	 0.2011	
221.00000	 0.1985	
221.20000	 0.1958	
221.40000	 0.1935	
221.60000	 0.1923	
221.80000	 0.1906	
222.00000	 0.1894	
222.20000	 0.1872	
222.40000	 0.1862	
222.60000	 0.1848	
222.80000	 0.1831	
223.00000	 0.1820	
223.20000	 0.1813	
223.40000	 0.1793	
223.60000	 0.1772	
223.80000	 0.1750	
224.00000	 0.1732	
224.20000	 0.1729	
224.40000	 0.1721	
224.60000	 0.1733	
224.80000	 0.1744	
225.00000	 0.1759	
225.20000	 0.1779	
225.40000	 0.1799	
225.60000	 0.1825	
225.80000	 0.1848	
226.00000	 0.1878	
226.20000	 0.1913	
226.40000	 0.1956	
226.60000	 0.2013	
226.80000	 0.2080	
227.00000	 0.2122	
227.20000	 0.2167	
227.40000	 0.2217	
227.60000	 0.2260	
227.80000	 0.2313	
228.00000	 0.2361	
228.20000	 0.2419	
228.40000	 0.2463	
228.60000	 0.2509	
228.80000	 0.2557	
229.00000	 0.2609	
229.20000	 0.2669	
229.40000	 0.2730	
229.60000	 0.2802	
229.80000	 0.2885	
230.00000	 0.2983	
230.20000	 0.3070	
230.40000	 0.3169	
230.60000	 0.3278	
230.80000	 0.3386	
231.00000	 0.3499	
231.20000	 0.3622	
231.40000	 0.3740	
231.60000	 0.3856	
231.80000	 0.3983	
232.00000	 0.4106	
232.20000	 0.4225	
232.40000	 0.4353	
232.60000	 0.4448	
232.80000	 0.4555	
233.00000	 0.4640	
233.20000	 0.4723	
233.40000	 0.4794	
233.60000	 0.4861	
233.80000	 0.4913	
234.00000	 0.4955	
234.20000	 0.4982	
234.40000	 0.5005	
234.60000	 0.5011	
234.80000	 0.4994	
235.00000	 0.4961	
235.20000	 0.4916	
235.40000	 0.4842	
235.60000	 0.4773	
235.80000	 0.4700	
236.00000	 0.4617	
236.20000	 0.4538	
236.40000	 0.4454	
236.60000	 0.4366	
236.80000	 0.4265	
237.00000	 0.4169	
237.20000	 0.4070	
237.40000	 0.3964	
237.60000	 0.3867	
237.80000	 0.3770	
238.00000	 0.3676	
238.20000	 0.3584	
238.40000	 0.3499	
238.60000	 0.3410	
238.80000	 0.3325	
239.00000	 0.3239	
239.20000	 0.3165	
239.40000	 0.3090	
239.60000	 0.3021	
239.80000	 0.2954	
240.00000	 0.2884	
240.20000	 0.2817	
240.40000	 0.2748	
240.60000	 0.2689	
240.80000	 0.2635	
241.00000	 0.2600	
241.20000	 0.2571	
241.40000	 0.2557	
241.60000	 0.2544	
241.80000	 0.2542	
242.00000	 0.2533	
242.20000	 0.2541	
242.40000	 0.2550	
242.60000	 0.2567	
242.80000	 0.2585	
243.00000	 0.2623	
243.20000	 0.2666	
243.40000	 0.2730	
243.60000	 0.2776	
243.80000	 0.2818	
244.00000	 0.2863	
244.20000	 0.2907	
244.40000	 0.2957	
244.60000	 0.3000	
244.80000	 0.3047	
245.00000	 0.3093	
245.20000	 0.3130	
245.40000	 0.3171	
245.60000	 0.3206	
245.80000	 0.3244	
246.00000	 0.3278	
246.20000	 0.3319	
246.40000	 0.3357	
246.60000	 0.3406	
246.80000	 0.3447	
247.00000	 0.3467	
247.20000	 0.3497	
247.40000	 0.3520	
247.60000	 0.3539	
247.80000	 0.3563	
248.00000	 0.3572	
248.20000	 0.3584	
248.40000	 0.3596	
248.60000	 0.3606	
248.80000	 0.3615	
249.00000	 0.3630	
249.20000	 0.3624	
249.40000	 0.3630	
249.60000	 0.3624	
249.80000	 0.3616	
250.00000	 0.3610	
250.20000	 0.3604	
250.40000	 0.3596	
250.60000	 0.3577	
250.80000	 0.3566	
251.00000	 0.3552	
251.20000	 0.3537	
251.40000	 0.3516	
251.60000	 0.3473	
251.80000	 0.3436	
252.00000	 0.3378	
252.20000	 0.3320	
252.40000	 0.3265	
252.60000	 0.3221	
252.80000	 0.3165	
253.00000	 0.3114	
253.20000	 0.3058	
253.40000	 0.2994	
253.60000	 0.2924	
253.80000	 0.2853	
254.00000	 0.2780	
254.20000	 0.2707	
254.40000	 0.2629	
254.60000	 0.2559	
254.80000	 0.2486	
255.00000	 0.2414	
255.20000	 0.2339	
255.40000	 0.2272	
255.60000	 0.2199	
255.80000	 0.2133	
256.00000	 0.2068	
256.20000	 0.2000	
256.40000	 0.1944	
256.60000	 0.1881	
256.80000	 0.1817	
257.00000	 0.1750	
257.20000	 0.1689	
257.40000	 0.1633	
257.60000	 0.1593	
257.80000	 0.1555	
258.00000	 0.1529	
258.20000	 0.1501	
258.40000	 0.1480	
258.60000	 0.1450	
258.80000	 0.1439	
259.00000	 0.1425	
259.20000	 0.1410	
259.40000	 0.1405	
259.60000	 0.1410	
259.80000	 0.1421	
260.00000	 0.1456	
260.20000	 0.1480	
260.40000	 0.1494	
260.60000	 0.1512	
260.80000	 0.1529	
261.00000	 0.1549	
261.20000	 0.1576	
261.40000	 0.1602	
261.60000	 0.1640	
261.80000	 0.1662	
262.00000	 0.1692	
262.20000	 0.1721	
262.40000	 0.1750	
262.60000	 0.1781	
262.80000	 0.1808	
263.00000	 0.1848	
263.20000	 0.1898	
263.40000	 0.1936	
263.60000	 0.1967	
263.80000	 0.1997	
264.00000	 0.2028	
264.20000	 0.2052	
264.40000	 0.2080	
264.60000	 0.2101	
264.80000	 0.2115	
265.00000	 0.2124	
265.20000	 0.2139	
265.40000	 0.2144	
265.60000	 0.2155	
265.80000	 0.2155	
266.00000	 0.2151	
266.20000	 0.2138	
266.40000	 0.2119	
266.60000	 0.2103	
266.80000	 0.2080	
267.00000	 0.2060	
267.20000	 0.2028	
267.40000	 0.2007	
267.60000	 0.1979	
267.80000	 0.1953	
268.00000	 0.1924	
268.20000	 0.1877	
268.40000	 0.1831	
268.60000	 0.1767	
268.80000	 0.1701	
269.00000	 0.1646	
269.20000	 0.1601	
269.40000	 0.1550	
269.60000	 0.1511	
269.80000	 0.1469	
270.00000	 0.1419	
270.20000	 0.1379	
270.40000	 0.1334	
270.60000	 0.1299	
270.80000	 0.1259	
271.00000	 0.1224	
271.20000	 0.1190	
271.40000	 0.1163	
271.60000	 0.1137	
271.80000	 0.1109	
272.00000	 0.1085	
272.20000	 0.1057	
272.40000	 0.1035	
272.60000	 0.1010	
272.80000	 0.0987	
273.00000	 0.0964	
273.20000	 0.0940	
273.40000	 0.0917	
273.60000	 0.0885	
273.80000	 0.0856	
274.00000	 0.0827	
274.20000	 0.0816	
274.40000	 0.0804	
274.60000	 0.0801	
274.80000	 0.0801	
275.00000	 0.0803	
275.20000	 0.0804	
275.40000	 0.0810	
275.60000	 0.0827	
275.80000	 0.0830	
276.00000	 0.0848	
276.20000	 0.0868	
276.40000	 0.0897	
276.60000	 0.0943	
276.80000	 0.0993	
277.00000	 0.1021	
277.20000	 0.1051	
277.40000	 0.1077	
277.60000	 0.1109	
277.80000	 0.1141	
278.00000	 0.1176	
278.20000	 0.1208	
278.40000	 0.1234	
278.60000	 0.1262	
278.80000	 0.1283	
279.00000	 0.1309	
279.20000	 0.1340	
279.40000	 0.1363	
279.60000	 0.1399	
279.80000	 0.1439	
280.00000	 0.1488	
280.20000	 0.1520	
280.40000	 0.1549	
280.60000	 0.1584	
280.80000	 0.1605	
281.00000	 0.1637	
281.20000	 0.1662	
281.40000	 0.1678	
281.60000	 0.1694	
281.80000	 0.1715	
282.00000	 0.1727	
282.20000	 0.1738	
282.40000	 0.1756	
282.60000	 0.1758	
282.80000	 0.1762	
283.00000	 0.1758	
283.20000	 0.1758	
283.40000	 0.1753	
283.60000	 0.1755	
283.80000	 0.1743	
284.00000	 0.1738	
284.20000	 0.1730	
284.40000	 0.1730	
284.60000	 0.1720	
284.80000	 0.1695	
285.00000	 0.1671	
285.20000	 0.1636	
285.40000	 0.1582	
285.60000	 0.1546	
285.80000	 0.1515	
286.00000	 0.1485	
286.20000	 0.1457	
286.40000	 0.1428	
286.60000	 0.1396	
286.80000	 0.1367	
287.00000	 0.1337	
287.20000	 0.1305	
287.40000	 0.1274	
287.60000	 0.1248	
287.80000	 0.1221	
288.00000	 0.1195	
288.20000	 0.1180	
288.40000	 0.1160	
288.60000	 0.1143	
288.80000	 0.1118	
289.00000	 0.1100	
289.20000	 0.1085	
289.40000	 0.1067	
289.60000	 0.1053	
289.80000	 0.1041	
290.00000	 0.1021	
290.20000	 0.0999	
290.40000	 0.0972	
290.60000	 0.0957	
290.80000	 0.0945	
291.00000	 0.0937	
291.20000	 0.0938	
291.40000	 0.0946	
291.60000	 0.0951	
291.80000	 0.0961	
292.00000	 0.0967	
292.20000	 0.0977	
292.40000	 0.0992	
292.60000	 0.1003	
292.80000	 0.1018	
293.00000	 0.1050	
293.20000	 0.1085	
293.40000	 0.1138	
293.60000	 0.1170	
293.80000	 0.1198	
294.00000	 0.1228	
294.20000	 0.1256	
294.40000	 0.1286	
294.60000	 0.1315	
294.80000	 0.1350	
295.00000	 0.1376	
295.20000	 0.1399	
295.40000	 0.1421	
295.60000	 0.1447	
295.80000	 0.1471	
296.00000	 0.1498	
296.20000	 0.1530	
296.40000	 0.1570	
296.60000	 0.1608	
296.80000	 0.1645	
297.00000	 0.1675	
297.20000	 0.1703	
297.40000	 0.1729	
297.60000	 0.1752	
297.80000	 0.1778	
298.00000	 0.1791	
298.20000	 0.1805	
298.40000	 0.1819	
298.60000	 0.1828	
298.80000	 0.1834	
299.00000	 0.1849	
299.20000	 0.1840	
299.40000	 0.1840	
299.60000	 0.1831	
299.80000	 0.1820	
300.00000	 0.1813	
300.20000	 0.1802	
300.40000	 0.1788	
300.60000	 0.1775	
300.80000	 0.1761	
301.00000	 0.1743	
301.20000	 0.1729	
301.40000	 0.1706	
301.60000	 0.1665	
301.80000	 0.1631	
302.00000	 0.1576	
302.20000	 0.1537	
302.40000	 0.1491	
302.60000	 0.1457	
302.80000	 0.1419	
303.00000	 0.1384	
303.20000	 0.1358	
303.40000	 0.1321	
303.60000	 0.1292	
303.80000	 0.1254	
304.00000	 0.1228	
304.20000	 0.1199	
304.40000	 0.1170	
304.60000	 0.1146	
304.80000	 0.1126	
305.00000	 0.1109	
305.20000	 0.1091	
305.40000	 0.1071	
305.60000	 0.1051	
305.80000	 0.1038	
306.00000	 0.1021	
306.20000	 0.1003	
306.40000	 0.0993	
306.60000	 0.0974	
306.80000	 0.0957	
307.00000	 0.0934	
307.20000	 0.0911	
307.40000	 0.0894	
307.60000	 0.0894	
307.80000	 0.0890	
308.00000	 0.0900	
308.20000	 0.0903	
308.40000	 0.0916	
308.60000	 0.0914	
308.80000	 0.0926	
309.00000	 0.0943	
309.20000	 0.0952	
309.40000	 0.0974	
309.60000	 0.1001	
309.80000	 0.1035	
310.00000	 0.1082	
310.20000	 0.1122	
310.40000	 0.1147	
310.60000	 0.1178	
310.80000	 0.1205	
311.00000	 0.1236	
311.20000	 0.1265	
311.40000	 0.1295	
311.60000	 0.1329	
311.80000	 0.1355	
312.00000	 0.1385	
312.20000	 0.1411	
312.40000	 0.1445	
312.60000	 0.1474	
312.80000	 0.1505	
313.00000	 0.1546	
313.20000	 0.1590	
313.40000	 0.1634	
313.60000	 0.1669	
313.80000	 0.1706	
314.00000	 0.1735	
314.20000	 0.1758	
314.40000	 0.1793	
314.60000	 0.1810	
314.80000	 0.1830	
315.00000	 0.1848	
315.20000	 0.1866	
315.40000	 0.1877	
315.60000	 0.1889	
315.80000	 0.1892	
316.00000	 0.1901	
316.20000	 0.1895	
316.40000	 0.1886	
316.60000	 0.1886	
316.80000	 0.1880	
317.00000	 0.1872	
317.20000	 0.1865	
317.40000	 0.1855	
317.60000	 0.1845	
317.80000	 0.1837	
318.00000	 0.1825	
318.20000	 0.1794	
318.40000	 0.1765	
318.60000	 0.1723	
318.80000	 0.1678	
319.00000	 0.1640	
319.20000	 0.1616	
319.40000	 0.1576	
319.60000	 0.1552	
319.80000	 0.1527	
320.00000	 0.1497	
320.20000	 0.1463	
320.40000	 0.1437	
320.60000	 0.1411	
320.80000	 0.1389	
321.00000	 0.1360	
321.20000	 0.1346	
321.40000	 0.1320	
321.60000	 0.1300	
321.80000	 0.1285	
322.00000	 0.1271	
322.20000	 0.1254	
322.40000	 0.1241	
322.60000	 0.1225	
322.80000	 0.1213	
323.00000	 0.1199	
323.20000	 0.1189	
323.40000	 0.1172	
323.60000	 0.1151	
323.80000	 0.1129	
324.00000	 0.1118	
324.20000	 0.1117	
324.40000	 0.1117	
324.60000	 0.1126	
324.80000	 0.1129	
325.00000	 0.1144	
325.20000	 0.1158	
325.40000	 0.1164	
325.60000	 0.1184	
325.80000	 0.1198	
326.00000	 0.1219	
326.20000	 0.1248	
326.40000	 0.1285	
326.60000	 0.1329	
326.80000	 0.1379	
327.00000	 0.1411	
327.20000	 0.1443	
327.40000	 0.1469	
327.60000	 0.1506	
327.80000	 0.1538	
328.00000	 0.1564	
328.20000	 0.1602	
328.40000	 0.1634	
328.60000	 0.1660	
328.80000	 0.1691	
329.00000	 0.1724	
329.20000	 0.1752	
329.40000	 0.1781	
329.60000	 0.1820	
329.80000	 0.1865	
330.00000	 0.1912	
330.20000	 0.1949	
330.40000	 0.1985	
330.60000	 0.2017	
330.80000	 0.2046	
331.00000	 0.2080	
331.20000	 0.2101	
331.40000	 0.2124	
331.60000	 0.2142	
331.80000	 0.2162	
332.00000	 0.2174	
332.20000	 0.2185	
332.40000	 0.2197	
332.60000	 0.2199	
332.80000	 0.2200	
333.00000	 0.2197	
333.20000	 0.2194	
333.40000	 0.2187	
333.60000	 0.2187	
333.80000	 0.2182	
334.00000	 0.2168	
334.20000	 0.2159	
334.40000	 0.2156	
334.60000	 0.2144	
334.80000	 0.2118	
335.00000	 0.2092	
335.20000	 0.2052	
335.40000	 0.2005	
335.60000	 0.1968	
335.80000	 0.1939	
336.00000	 0.1907	
336.20000	 0.1884	
336.40000	 0.1857	
336.60000	 0.1828	
336.80000	 0.1797	
337.00000	 0.1772	
337.20000	 0.1744	
337.40000	 0.1717	
337.60000	 0.1695	
337.80000	 0.1672	
338.00000	 0.1651	
338.20000	 0.1636	
338.40000	 0.1619	
338.60000	 0.1605	
338.80000	 0.1590	
339.00000	 0.1576	
339.20000	 0.1566	
339.40000	 0.1553	
339.60000	 0.1538	
339.80000	 0.1527	
340.00000	 0.1515	
340.20000	 0.1494	
340.40000	 0.1476	
340.60000	 0.1457	
340.80000	 0.1454	
341.00000	 0.1450	
341.20000	 0.1457	
341.40000	 0.1465	
341.60000	 0.1477	
341.80000	 0.1485	
342.00000	 0.1497	
342.20000	 0.1517	
342.40000	 0.1530	
342.60000	 0.1546	
342.80000	 0.1570	
343.00000	 0.1604	
343.20000	 0.1639	
343.40000	 0.1697	
343.60000	 0.1730	
343.80000	 0.1761	
344.00000	 0.1788	
344.20000	 0.1819	
344.40000	 0.1851	
344.60000	 0.1881	
344.80000	 0.1918	
345.00000	 0.1952	
345.20000	 0.1979	
345.40000	 0.2010	
345.60000	 0.2036	
345.80000	 0.2069	
346.00000	 0.2095	
346.20000	 0.2136	
346.40000	 0.2177	
346.60000	 0.2223	
346.80000	 0.2263	
347.00000	 0.2301	
347.20000	 0.2332	
347.40000	 0.2359	
347.60000	 0.2390	
347.80000	 0.2420	
348.00000	 0.2434	
348.20000	 0.2449	
348.40000	 0.2470	
348.60000	 0.2477	
348.80000	 0.2483	
349.00000	 0.2499	
349.20000	 0.2495	
349.40000	 0.2495	
349.60000	 0.2489	
349.80000	 0.2478	
350.00000	 0.2477	
350.20000	 0.2464	
350.40000	 0.2457	
350.60000	 0.2443	
350.80000	 0.2431	
351.00000	 0.2417	
351.20000	 0.2406	
351.40000	 0.2380	
351.60000	 0.2348	
351.80000	 0.2306	
352.00000	 0.2255	
352.20000	 0.2216	
352.40000	 0.2184	
352.60000	 0.2148	
352.80000	 0.2115	
353.00000	 0.2083	
353.20000	 0.2051	
353.40000	 0.2020	
353.60000	 0.1988	
353.80000	 0.1962	
354.00000	 0.1930	
354.20000	 0.1903	
354.40000	 0.1878	
354.60000	 0.1855	
354.80000	 0.1839	
355.00000	 0.1814	
355.20000	 0.1799	
355.40000	 0.1779	
355.60000	 0.1756	
355.80000	 0.1746	
356.00000	 0.1730	
356.20000	 0.1714	
356.40000	 0.1700	
356.60000	 0.1682	
356.80000	 0.1665	
357.00000	 0.1639	
357.20000	 0.1617	
357.40000	 0.1607	
357.60000	 0.1604	
357.80000	 0.1605	
358.00000	 0.1613	
358.20000	 0.1617	
358.40000	 0.1628	
358.60000	 0.1636	
358.80000	 0.1648	
359.00000	 0.1659	
359.20000	 0.1671	
359.40000	 0.1688	
359.60000	 0.1717	
359.80000	 0.1750	
360.00000	 0.1801	
360.20000	 0.1830	
360.40000	 0.1860	
360.60000	 0.1884	
360.80000	 0.1915	
361.00000	 0.1950	
361.20000	 0.1973	
361.40000	 0.2011	
361.60000	 0.2040	
361.80000	 0.2061	
362.00000	 0.2090	
362.20000	 0.2116	
362.40000	 0.2147	
362.60000	 0.2174	
362.80000	 0.2203	
363.00000	 0.2237	
363.20000	 0.2284	
363.40000	 0.2321	
363.60000	 0.2350	
363.80000	 0.2379	
364.00000	 0.2403	
364.20000	 0.2425	
364.40000	 0.2451	
364.60000	 0.2463	
364.80000	 0.2481	
365.00000	 0.2492	
365.20000	 0.2502	
365.40000	 0.2507	
365.60000	 0.2519	
365.80000	 0.2510	
366.00000	 0.2515	
366.20000	 0.2507	
366.40000	 0.2499	
366.60000	 0.2489	
366.80000	 0.2477	
367.00000	 0.2464	
367.20000	 0.2455	
367.40000	 0.2441	
367.60000	 0.2428	
367.80000	 0.2414	
368.00000	 0.2394	
368.20000	 0.2357	
368.40000	 0.2328	
368.60000	 0.2277	
368.80000	 0.2232	
369.00000	 0.2197	
369.20000	 0.2164	
369.40000	 0.2122	
369.60000	 0.2098	
369.80000	 0.2069	
370.00000	 0.2039	
370.20000	 0.2011	
370.40000	 0.1979	
370.60000	 0.1961	
370.80000	 0.1933	
371.00000	 0.1912	
371.20000	 0.1895	
371.40000	 0.1881	
371.60000	 0.1863	
371.80000	 0.1849	
372.00000	 0.1839	
372.20000	 0.1825	
372.40000	 0.1814	
372.60000	 0.1804	
372.80000	 0.1797	
373.00000	 0.1793	
373.20000	 0.1781	
373.40000	 0.1767	
373.60000	 0.1755	
373.80000	 0.1744	
374.00000	 0.1736	
374.20000	 0.1744	
374.40000	 0.1759	
374.60000	 0.1782	
374.80000	 0.1802	
375.00000	 0.1828	
375.20000	 0.1848	
375.40000	 0.1878	
375.60000	 0.1907	
375.80000	 0.1939	
376.00000	 0.1979	
376.20000	 0.2036	
376.40000	 0.2097	
376.60000	 0.2176	
376.80000	 0.2254	
377.00000	 0.2324	
377.20000	 0.2391	
377.40000	 0.2461	
377.60000	 0.2542	
377.80000	 0.2614	
378.00000	 0.2695	
378.20000	 0.2779	
378.40000	 0.2864	
378.60000	 0.2950	
378.80000	 0.3040	
379.00000	 0.3143	
379.20000	 0.3244	
379.40000	 0.3346	
379.60000	 0.3470	
379.80000	 0.3595	
380.00000	 0.3725	
380.20000	 0.3856	
380.40000	 0.3990	
380.60000	 0.4124	
380.80000	 0.4260	
381.00000	 0.4405	
381.20000	 0.4544	
381.40000	 0.4689	
381.60000	 0.4834	
381.80000	 0.4987	
382.00000	 0.5130	
382.20000	 0.5283	
382.40000	 0.5440	
382.60000	 0.5589	
382.80000	 0.5736	
383.00000	 0.5878	
383.20000	 0.6020	
383.40000	 0.6157	
383.60000	 0.6293	
383.80000	 0.6419	
384.00000	 0.6537	
384.20000	 0.6636	
384.40000	 0.6721	
384.60000	 0.6779	
384.80000	 0.6796	
385.00000	 0.6801	
385.20000	 0.6757	
385.40000	 0.6686	
385.60000	 0.6586	
385.80000	 0.6453	
386.00000	 0.6277	
386.20000	 0.6050	
386.40000	 0.5775	
386.60000	 0.5453	
386.80000	 0.5086	
387.00000	 0.4663	
387.20000	 0.4189	
387.40000	 0.3670	
387.60000	 0.3102	
387.80000	 0.2481	
388.00000	 0.1819	
388.20000	 0.1103	
388.40000	 0.0357	
388.60000	-0.0406	
388.80000	-0.1186	
389.00000	-0.1967	
389.20000	-0.2748	
389.40000	-0.3525	
389.60000	-0.4305	
389.80000	-0.5061	
390.00000	-0.5820	
390.20000	-0.6572	
390.40000	-0.7304	
390.60000	-0.8025	
390.80000	-0.8728	
391.00000	-0.9416	
391.20000	-1.0075	
391.40000	-1.0710	
391.60000	-1.1304	
391.80000	-1.1841	
392.00000	-1.2321	
392.20000	-1.2714	
392.40000	-1.3040	
392.60000	-1.3280	
392.80000	-1.3448	
393.00000	-1.3542	
393.20000	-1.3568	
393.40000	-1.3524	
393.60000	-1.3451	
393.80000	-1.3330	
394.00000	-1.3165	
394.20000	-1.2959	
394.40000	-1.2720	
394.60000	-1.2453	
394.80000	-1.2152	
395.00000	-1.1824	
395.20000	-1.1469	
395.40000	-1.1093	
395.60000	-1.0689	
395.80000	-1.0269	
396.00000	-0.9833	
396.20000	-0.9380	
396.40000	-0.8916	
396.60000	-0.8440	
396.80000	-0.7974	
397.00000	-0.7524	
397.20000	-0.7083	
397.40000	-0.6667	
397.60000	-0.6259	
397.80000	-0.5884	
398.00000	-0.5544	
398.20000	-0.5237	
398.40000	-0.4953	
398.60000	-0.4707	
398.80000	-0.4488	
399.00000	-0.4283	
399.20000	-0.4121	
399.40000	-0.3970	
399.60000	-0.3845	
399.80000	-0.3729	
400.00000	-0.3624	
400.20000	-0.3520	
400.40000	-0.3427	
400.60000	-0.3329	
400.80000	-0.3230	
401.00000	-0.3125	
401.20000	-0.3015	
401.40000	-0.2911	
401.60000	-0.2803	
401.80000	-0.2693	
402.00000	-0.2588	
402.20000	-0.2460	
402.40000	-0.2319	
402.60000	-0.2176	
402.80000	-0.2014	
403.00000	-0.1846	
403.20000	-0.1678	
403.40000	-0.1511	
403.60000	-0.1343	
403.80000	-0.1167	
404.00000	-0.0993	
404.20000	-0.0810	
404.40000	-0.0633	
404.60000	-0.0447	
404.80000	-0.0259	
405.00000	-0.0078	
405.20000	 0.0116	
405.40000	 0.0298	
405.60000	 0.0481	
405.80000	 0.0667	
406.00000	 0.0848	
406.20000	 0.1025	
406.40000	 0.1195	
406.60000	 0.1360	
406.80000	 0.1518	
407.00000	 0.1662	
407.20000	 0.1810	
407.40000	 0.1953	
407.60000	 0.2103	
407.80000	 0.2260	
408.00000	 0.2414	
408.20000	 0.2562	
408.40000	 0.2711	
408.60000	 0.2856	
408.80000	 0.3003	
409.00000	 0.3139	
409.20000	 0.3279	
409.40000	 0.3416	
409.60000	 0.3554	
409.80000	 0.3697	
410.00000	 0.3857	
410.20000	 0.3992	
410.40000	 0.4121	
410.60000	 0.4247	
410.80000	 0.4370	
411.00000	 0.4494	
411.20000	 0.4613	
411.40000	 0.4741	
411.60000	 0.4869	
411.80000	 0.4988	
412.00000	 0.5110	
412.20000	 0.5232	
412.40000	 0.5354	
412.60000	 0.5476	
412.80000	 0.5602	
413.00000	 0.5737	
413.20000	 0.5878	
413.40000	 0.6018	
413.60000	 0.6146	
413.80000	 0.6273	
414.00000	 0.6395	
414.20000	 0.6512	
414.40000	 0.6633	
414.60000	 0.6734	
414.80000	 0.6833	
415.00000	 0.6924	
415.20000	 0.7018	
415.40000	 0.7094	
415.60000	 0.7179	
415.80000	 0.7237	
416.00000	 0.7306	
416.20000	 0.7356	
416.40000	 0.7404	
416.60000	 0.7455	
416.80000	 0.7497	
417.00000	 0.7530	
417.20000	 0.7562	
417.40000	 0.7591	
417.60000	 0.7617	
417.80000	 0.7639	
418.00000	 0.7655	
418.20000	 0.7655	
418.40000	 0.7655	
418.60000	 0.7640	
418.80000	 0.7632	
419.00000	 0.7620	
419.20000	 0.7623	
419.40000	 0.7616	
419.60000	 0.7616	
419.80000	 0.7610	
420.00000	 0.7599	
420.20000	 0.7594	
420.40000	 0.7590	
420.60000	 0.7590	
420.80000	 0.7581	
421.00000	 0.7581	
421.20000	 0.7582	
421.40000	 0.7587	
421.60000	 0.7587	
421.80000	 0.7596	
422.00000	 0.7603	
422.20000	 0.7605	
422.40000	 0.7614	
422.60000	 0.7623	
422.80000	 0.7628	
423.00000	 0.7635	
423.20000	 0.7632	
423.40000	 0.7628	
423.60000	 0.7617	
423.80000	 0.7605	
424.00000	 0.7593	
424.20000	 0.7591	
424.40000	 0.7588	
424.60000	 0.7591	
424.80000	 0.7590	
425.00000	 0.7585	
425.20000	 0.7576	
425.40000	 0.7568	
425.60000	 0.7559	
425.80000	 0.7545	
426.00000	 0.7532	
426.20000	 0.7529	
426.40000	 0.7527	
426.60000	 0.7538	
426.80000	 0.7533	
427.00000	 0.7524	
427.20000	 0.7509	
427.40000	 0.7489	
427.60000	 0.7466	
427.80000	 0.7446	
428.00000	 0.7423	
428.20000	 0.7405	
428.40000	 0.7379	
428.60000	 0.7350	
428.80000	 0.7318	
429.00000	 0.7292	
429.20000	 0.7265	
429.40000	 0.7234	
429.60000	 0.7214	
429.80000	 0.7199	
430.00000	 0.7178	
430.20000	 0.7149	
430.40000	 0.7121	
430.60000	 0.7095	
430.80000	 0.7060	
431.00000	 0.7033	
431.20000	 0.6993	
431.40000	 0.6953	
431.60000	 0.6906	
431.80000	 0.6870	
432.00000	 0.6819	
432.20000	 0.6776	
432.40000	 0.6725	
432.60000	 0.6674	
432.80000	 0.6616	
433.00000	 0.6554	
433.20000	 0.6502	
433.40000	 0.6439	
433.60000	 0.6383	
433.80000	 0.6325	
434.00000	 0.6261	
434.20000	 0.6200	
434.40000	 0.6146	
434.60000	 0.6081	
434.80000	 0.6001	
435.00000	 0.5933	
435.20000	 0.5843	
435.40000	 0.5757	
435.60000	 0.5681	
435.80000	 0.5602	
436.00000	 0.5518	
436.20000	 0.5447	
436.40000	 0.5377	
436.60000	 0.5304	
436.80000	 0.5234	
437.00000	 0.5164	
437.20000	 0.5099	
437.40000	 0.5026	
437.60000	 0.4962	
437.80000	 0.4903	
438.00000	 0.4842	
438.20000	 0.4784	
438.40000	 0.4726	
438.60000	 0.4669	
438.80000	 0.4611	
439.00000	 0.4562	
439.20000	 0.4510	
439.40000	 0.4459	
439.60000	 0.4410	
439.80000	 0.4367	
440.00000	 0.4311	
440.20000	 0.4253	
440.40000	 0.4199	
440.60000	 0.4147	
440.80000	 0.4111	
441.00000	 0.4073	
441.20000	 0.4048	
441.40000	 0.4025	
441.60000	 0.4002	
441.80000	 0.3975	
442.00000	 0.3949	
442.20000	 0.3931	
442.40000	 0.3908	
442.60000	 0.3894	
442.80000	 0.3882	
443.00000	 0.3882	
443.20000	 0.3893	
443.40000	 0.3902	
443.60000	 0.3900	
443.80000	 0.3896	
444.00000	 0.3885	
444.20000	 0.3882	
444.40000	 0.3880	
444.60000	 0.3876	
444.80000	 0.3879	
445.00000	 0.3876	
445.20000	 0.3871	
445.40000	 0.3867	
445.60000	 0.3867	
445.80000	 0.3867	
446.00000	 0.3862	
446.20000	 0.3871	
446.40000	 0.3876	
446.60000	 0.3886	
446.80000	 0.3900	
447.00000	 0.3903	
447.20000	 0.3905	
447.40000	 0.3899	
447.60000	 0.3899	
447.80000	 0.3899	
448.00000	 0.3886	
448.20000	 0.3879	
448.40000	 0.3870	
448.60000	 0.3848	
448.80000	 0.3839	
449.00000	 0.3822	
449.20000	 0.3796	
449.40000	 0.3777	
449.60000	 0.3745	
449.80000	 0.3719	
450.00000	 0.3687	
450.20000	 0.3665	
450.40000	 0.3633	
450.60000	 0.3603	
450.80000	 0.3575	
451.00000	 0.3545	
451.20000	 0.3514	
451.40000	 0.3468	
451.60000	 0.3424	
451.80000	 0.3371	
452.00000	 0.3311	
452.20000	 0.3258	
452.40000	 0.3207	
452.60000	 0.3156	
452.80000	 0.3114	
453.00000	 0.3072	
453.20000	 0.3027	
453.40000	 0.2982	
453.60000	 0.2940	
453.80000	 0.2899	
454.00000	 0.2853	
454.20000	 0.2817	
454.40000	 0.2780	
454.60000	 0.2747	
454.80000	 0.2715	
455.00000	 0.2679	
455.20000	 0.2652	
455.40000	 0.2621	
455.60000	 0.2589	
455.80000	 0.2567	
456.00000	 0.2538	
456.20000	 0.2513	
456.40000	 0.2492	
456.60000	 0.2458	
456.80000	 0.2429	
457.00000	 0.2393	
457.20000	 0.2367	
457.40000	 0.2344	
457.60000	 0.2330	
457.80000	 0.2324	
458.00000	 0.2322	
458.20000	 0.2316	
458.40000	 0.2318	
458.60000	 0.2309	
458.80000	 0.2309	
459.00000	 0.2312	
459.20000	 0.2313	
459.40000	 0.2322	
459.60000	 0.2336	
459.80000	 0.2356	
460.00000	 0.2393	
460.20000	 0.2402	
460.40000	 0.2419	
460.60000	 0.2435	
460.80000	 0.2446	
461.00000	 0.2461	
461.20000	 0.2473	
461.40000	 0.2487	
461.60000	 0.2504	
461.80000	 0.2519	
462.00000	 0.2536	
462.20000	 0.2548	
462.40000	 0.2563	
462.60000	 0.2576	
462.80000	 0.2589	
463.00000	 0.2612	
463.20000	 0.2647	
463.40000	 0.2666	
463.60000	 0.2686	
463.80000	 0.2701	
464.00000	 0.2715	
464.20000	 0.2727	
464.40000	 0.2739	
464.60000	 0.2750	
464.80000	 0.2751	
465.00000	 0.2753	
465.20000	 0.2751	
465.40000	 0.2750	
465.60000	 0.2754	
465.80000	 0.2737	
466.00000	 0.2730	
466.20000	 0.2708	
466.40000	 0.2692	
466.60000	 0.2679	
466.80000	 0.2664	
467.00000	 0.2643	
467.20000	 0.2626	
467.40000	 0.2606	
467.60000	 0.2588	
467.80000	 0.2565	
468.00000	 0.2542	
468.20000	 0.2504	
468.40000	 0.2464	
468.60000	 0.2414	
468.80000	 0.2371	
469.00000	 0.2333	
469.20000	 0.2293	
469.40000	 0.2261	
469.60000	 0.2228	
469.80000	 0.2197	
470.00000	 0.2161	
470.20000	 0.2122	
470.40000	 0.2095	
470.60000	 0.2061	
470.80000	 0.2031	
471.00000	 0.2000	
471.20000	 0.1978	
471.40000	 0.1955	
471.60000	 0.1923	
471.80000	 0.1906	
472.00000	 0.1886	
472.20000	 0.1863	
472.40000	 0.1846	
472.60000	 0.1830	
472.80000	 0.1813	
473.00000	 0.1797	
473.20000	 0.1776	
473.40000	 0.1755	
473.60000	 0.1730	
473.80000	 0.1709	
474.00000	 0.1688	
474.20000	 0.1682	
474.40000	 0.1682	
474.60000	 0.1688	
474.80000	 0.1688	
475.00000	 0.1695	
475.20000	 0.1695	
475.40000	 0.1701	
475.60000	 0.1711	
475.80000	 0.1721	
476.00000	 0.1732	
476.20000	 0.1752	
476.40000	 0.1773	
476.60000	 0.1813	
476.80000	 0.1837	
477.00000	 0.1860	
477.20000	 0.1880	
477.40000	 0.1895	
477.60000	 0.1920	
477.80000	 0.1932	
478.00000	 0.1955	
478.20000	 0.1982	
478.40000	 0.2000	
478.60000	 0.2020	
478.80000	 0.2034	
479.00000	 0.2057	
479.20000	 0.2074	
479.40000	 0.2092	
479.60000	 0.2119	
479.80000	 0.2156	
480.00000	 0.2182	
480.20000	 0.2203	
480.40000	 0.2229	
480.60000	 0.2251	
480.80000	 0.2263	
481.00000	 0.2286	
481.20000	 0.2295	
481.40000	 0.2306	
481.60000	 0.2310	
481.80000	 0.2315	
482.00000	 0.2316	
482.20000	 0.2321	
482.40000	 0.2309	
482.60000	 0.2310	
482.80000	 0.2301	
483.00000	 0.2283	
483.20000	 0.2274	
483.40000	 0.2261	
483.60000	 0.2249	
483.80000	 0.2232	
484.00000	 0.2219	
484.20000	 0.2205	
484.40000	 0.2190	
484.60000	 0.2170	
484.80000	 0.2133	
485.00000	 0.2104	
485.20000	 0.2058	
485.40000	 0.2017	
485.60000	 0.1982	
485.80000	 0.1952	
486.00000	 0.1913	
486.20000	 0.1884	
486.40000	 0.1859	
486.60000	 0.1826	
486.80000	 0.1796	
487.00000	 0.1764	
487.20000	 0.1741	
487.40000	 0.1712	
487.60000	 0.1686	
487.80000	 0.1665	
488.00000	 0.1645	
488.20000	 0.1624	
488.40000	 0.1601	
488.60000	 0.1587	
488.80000	 0.1567	
489.00000	 0.1550	
489.20000	 0.1534	
489.40000	 0.1518	
489.60000	 0.1503	
489.80000	 0.1488	
490.00000	 0.1468	
490.20000	 0.1445	
490.40000	 0.1424	
490.60000	 0.1404	
490.80000	 0.1402	
491.00000	 0.1398	
491.20000	 0.1405	
491.40000	 0.1411	
491.60000	 0.1416	
491.80000	 0.1421	
492.00000	 0.1433	
492.20000	 0.1442	
492.40000	 0.1445	
492.60000	 0.1463	
492.80000	 0.1483	
493.00000	 0.1505	
493.20000	 0.1544	
493.40000	 0.1575	
493.60000	 0.1598	
493.80000	 0.1617	
494.00000	 0.1633	
494.20000	 0.1657	
494.40000	 0.1677	
494.60000	 0.1697	
494.80000	 0.1721	
495.00000	 0.1743	
495.20000	 0.1762	
495.40000	 0.1781	
495.60000	 0.1802	
495.80000	 0.1825	
496.00000	 0.1846	
496.20000	 0.1872	
496.40000	 0.1903	
496.60000	 0.1932	
496.80000	 0.1961	
497.00000	 0.1985	
497.20000	 0.2010	
497.40000	 0.2022	
497.60000	 0.2040	
497.80000	 0.2055	
498.00000	 0.2065	
498.20000	 0.2071	
498.40000	 0.2078	
498.60000	 0.2078	
498.80000	 0.2084	
499.00000	 0.2081	
499.20000	 0.2074	
499.40000	 0.2071	
499.60000	 0.2058	
499.80000	 0.2046	
500.00000	 0.2032	
500.20000	 0.2026	
500.40000	 0.2008	
500.60000	 0.1994	
500.80000	 0.1979	
501.00000	 0.1968	
501.20000	 0.1949	
501.40000	 0.1920	
501.60000	 0.1889	
501.80000	 0.1852	
502.00000	 0.1810	
502.20000	 0.1781	
502.40000	 0.1746	
502.60000	 0.1707	
502.80000	 0.1683	
503.00000	 0.1654	
503.20000	 0.1624	
503.40000	 0.1596	
503.60000	 0.1567	
503.80000	 0.1541	
504.00000	 0.1512	
504.20000	 0.1489	
504.40000	 0.1469	
504.60000	 0.1453	
504.80000	 0.1428	
505.00000	 0.1410	
505.20000	 0.1396	
505.40000	 0.1376	
505.60000	 0.1361	
505.80000	 0.1346	
506.00000	 0.1334	
506.20000	 0.1320	
506.40000	 0.1306	
506.60000	 0.1288	
506.80000	 0.1265	
507.00000	 0.1251	
507.20000	 0.1228	
507.40000	 0.1225	
507.60000	 0.1222	
507.80000	 0.1228	
508.00000	 0.1237	
508.20000	 0.1245	
508.40000	 0.1248	
508.60000	 0.1254	
508.80000	 0.1268	
509.00000	 0.1274	
509.20000	 0.1286	
509.40000	 0.1303	
509.60000	 0.1328	
509.80000	 0.1357	
510.00000	 0.1399	
510.20000	 0.1421	
510.40000	 0.1443	
510.60000	 0.1466	
510.80000	 0.1486	
511.00000	 0.1506	
511.20000	 0.1526	
511.40000	 0.1552	
511.60000	 0.1572	
511.80000	 0.1591	
512.00000	 0.1614	
512.20000	 0.1637	
512.40000	 0.1660	
512.60000	 0.1678	
512.80000	 0.1709	
513.00000	 0.1735	
513.20000	 0.1770	
513.40000	 0.1797	
513.60000	 0.1822	
513.80000	 0.1842	
514.00000	 0.1862	
514.20000	 0.1878	
514.40000	 0.1894	
514.60000	 0.1907	
514.80000	 0.1912	
515.00000	 0.1926	
515.20000	 0.1927	
515.40000	 0.1932	
515.60000	 0.1942	
515.80000	 0.1929	
516.00000	 0.1930	
516.20000	 0.1915	
516.40000	 0.1906	
516.60000	 0.1898	
516.80000	 0.1888	
517.00000	 0.1874	
517.20000	 0.1865	
517.40000	 0.1849	
517.60000	 0.1840	
517.80000	 0.1823	
518.00000	 0.1801	
518.20000	 0.1776	
518.40000	 0.1741	
518.60000	 0.1697	
518.80000	 0.1666	
519.00000	 0.1634	
519.20000	 0.1601	
519.40000	 0.1572	
519.60000	 0.1546	
519.80000	 0.1520	
520.00000	 0.1494	
520.20000	 0.1466	
520.40000	 0.1440	
520.60000	 0.1418	
520.80000	 0.1396	
521.00000	 0.1372	
521.20000	 0.1355	
521.40000	 0.1340	
521.60000	 0.1314	
521.80000	 0.1299	
522.00000	 0.1286	
522.20000	 0.1270	
522.40000	 0.1253	
522.60000	 0.1242	
522.80000	 0.1233	
523.00000	 0.1221	
523.20000	 0.1202	
523.40000	 0.1186	
523.60000	 0.1170	
523.80000	 0.1157	
524.00000	 0.1143	
524.20000	 0.1144	
524.40000	 0.1149	
524.60000	 0.1161	
524.80000	 0.1164	
525.00000	 0.1176	
525.20000	 0.1178	
525.40000	 0.1189	
525.60000	 0.1204	
525.80000	 0.1215	
526.00000	 0.1228	
526.20000	 0.1250	
526.40000	 0.1283	
526.60000	 0.1328	
526.80000	 0.1349	
527.00000	 0.1373	
527.20000	 0.1396	
527.40000	 0.1414	
527.60000	 0.1439	
527.80000	 0.1460	
528.00000	 0.1485	
528.20000	 0.1509	
528.40000	 0.1532	
528.60000	 0.1555	
528.80000	 0.1575	
529.00000	 0.1601	
529.20000	 0.1625	
529.40000	 0.1646	
529.60000	 0.1678	
529.80000	 0.1712	
530.00000	 0.1741	
530.20000	 0.1770	
530.40000	 0.1794	
530.60000	 0.1816	
530.80000	 0.1836	
531.00000	 0.1852	
531.20000	 0.1866	
531.40000	 0.1877	
531.60000	 0.1883	
531.80000	 0.1894	
532.00000	 0.1895	
532.20000	 0.1906	
532.40000	 0.1900	
532.60000	 0.1895	
532.80000	 0.1884	
533.00000	 0.1878	
533.20000	 0.1872	
533.40000	 0.1863	
533.60000	 0.1852	
533.80000	 0.1846	
534.00000	 0.1830	
534.20000	 0.1822	
534.40000	 0.1804	
534.60000	 0.1791	
534.80000	 0.1761	
535.00000	 0.1735	
535.20000	 0.1694	
535.40000	 0.1660	
535.60000	 0.1630	
535.80000	 0.1605	
536.00000	 0.1573	
536.20000	 0.1552	
536.40000	 0.1524	
536.60000	 0.1498	
536.80000	 0.1474	
537.00000	 0.1448	
537.20000	 0.1424	
537.40000	 0.1402	
537.60000	 0.1379	
537.80000	 0.1369	
538.00000	 0.1349	
538.20000	 0.1332	
538.40000	 0.1318	
538.60000	 0.1306	
538.80000	 0.1289	
539.00000	 0.1277	
539.20000	 0.1270	
539.40000	 0.1256	
539.60000	 0.1248	
539.80000	 0.1230	
540.00000	 0.1216	
540.20000	 0.1202	
540.40000	 0.1189	
540.60000	 0.1169	
540.80000	 0.1173	
541.00000	 0.1180	
541.20000	 0.1193	
541.40000	 0.1198	
541.60000	 0.1208	
541.80000	 0.1219	
542.00000	 0.1230	
542.20000	 0.1245	
542.40000	 0.1251	
542.60000	 0.1270	
542.80000	 0.1294	
543.00000	 0.1318	
543.20000	 0.1361	
543.40000	 0.1398	
543.60000	 0.1421	
543.80000	 0.1443	
544.00000	 0.1465	
544.20000	 0.1488	
544.40000	 0.1511	
544.60000	 0.1532	
544.80000	 0.1562	
545.00000	 0.1590	
545.20000	 0.1613	
545.40000	 0.1633	
545.60000	 0.1659	
545.80000	 0.1686	
546.00000	 0.1711	
546.20000	 0.1738	
546.40000	 0.1772	
546.60000	 0.1802	
546.80000	 0.1830	
547.00000	 0.1857	
547.20000	 0.1881	
547.40000	 0.1904	
547.60000	 0.1921	
547.80000	 0.1936	
548.00000	 0.1952	
548.20000	 0.1958	
548.40000	 0.1971	
548.60000	 0.1976	
548.80000	 0.1979	
549.00000	 0.1979	
549.20000	 0.1976	
549.40000	 0.1970	
549.60000	 0.1965	
549.80000	 0.1956	
550.00000	 0.1949	
550.20000	 0.1944	
550.40000	 0.1932	
550.60000	 0.1924	
550.80000	 0.1912	
551.00000	 0.1904	
551.20000	 0.1892	
551.40000	 0.1863	
551.60000	 0.1837	
551.80000	 0.1801	
552.00000	 0.1764	
552.20000	 0.1736	
552.40000	 0.1714	
552.60000	 0.1677	
552.80000	 0.1654	
553.00000	 0.1630	
553.20000	 0.1605	
553.40000	 0.1587	
553.60000	 0.1564	
553.80000	 0.1538	
554.00000	 0.1518	
554.20000	 0.1497	
554.40000	 0.1480	
554.60000	 0.1465	
554.80000	 0.1453	
555.00000	 0.1434	
555.20000	 0.1422	
555.40000	 0.1410	
555.60000	 0.1395	
555.80000	 0.1385	
556.00000	 0.1376	
556.20000	 0.1372	
556.40000	 0.1360	
556.60000	 0.1343	
556.80000	 0.1331	
557.00000	 0.1317	
557.20000	 0.1299	
557.40000	 0.1300	
557.60000	 0.1303	
557.80000	 0.1312	
558.00000	 0.1324	
558.20000	 0.1334	
558.40000	 0.1341	
558.60000	 0.1350	
558.80000	 0.1369	
559.00000	 0.1376	
559.20000	 0.1393	
559.40000	 0.1414	
559.60000	 0.1440	
559.80000	 0.1479	
560.00000	 0.1515	
560.20000	 0.1540	
560.40000	 0.1562	
560.60000	 0.1582	
560.80000	 0.1610	
561.00000	 0.1630	
561.20000	 0.1654	
561.40000	 0.1680	
561.60000	 0.1709	
561.80000	 0.1730	
562.00000	 0.1753	
562.20000	 0.1776	
562.40000	 0.1801	
562.60000	 0.1826	
562.80000	 0.1855	
563.00000	 0.1880	
563.20000	 0.1912	
563.40000	 0.1944	
563.60000	 0.1973	
563.80000	 0.1994	
564.00000	 0.2011	
564.20000	 0.2034	
564.40000	 0.2054	
564.60000	 0.2065	
564.80000	 0.2074	
565.00000	 0.2084	
565.20000	 0.2090	
565.40000	 0.2094	
565.60000	 0.2098	
565.80000	 0.2094	
566.00000	 0.2092	
566.20000	 0.2081	
566.40000	 0.2075	
566.60000	 0.2071	
566.80000	 0.2063	
567.00000	 0.2054	
567.20000	 0.2046	
567.40000	 0.2036	
567.60000	 0.2026	
567.80000	 0.2016	
568.00000	 0.1991	
568.20000	 0.1965	
568.40000	 0.1929	
568.60000	 0.1894	
568.80000	 0.1866	
569.00000	 0.1842	
569.20000	 0.1808	
569.40000	 0.1784	
569.60000	 0.1759	
569.80000	 0.1740	
570.00000	 0.1717	
570.20000	 0.1695	
570.40000	 0.1674	
570.60000	 0.1646	
570.80000	 0.1628	
571.00000	 0.1608	
571.20000	 0.1601	
571.40000	 0.1584	
571.60000	 0.1566	
571.80000	 0.1553	
572.00000	 0.1540	
572.20000	 0.1527	
572.40000	 0.1512	
572.60000	 0.1509	
572.80000	 0.1497	
573.00000	 0.1491	
573.20000	 0.1474	
573.40000	 0.1462	
573.60000	 0.1443	
573.80000	 0.1436	
574.00000	 0.1425	
574.20000	 0.1427	
574.40000	 0.1437	
574.60000	 0.1448	
574.80000	 0.1459	
575.00000	 0.1468	
575.20000	 0.1482	
575.40000	 0.1494	
575.60000	 0.1506	
575.80000	 0.1520	
576.00000	 0.1540	
576.20000	 0.1561	
576.40000	 0.1596	
576.60000	 0.1637	
576.80000	 0.1662	
577.00000	 0.1686	
577.20000	 0.1707	
577.40000	 0.1735	
577.60000	 0.1756	
577.80000	 0.1778	
578.00000	 0.1804	
578.20000	 0.1830	
578.40000	 0.1852	
578.60000	 0.1880	
578.80000	 0.1900	
579.00000	 0.1927	
579.20000	 0.1949	
579.40000	 0.1976	
579.60000	 0.2008	
579.80000	 0.2040	
580.00000	 0.2072	
580.20000	 0.2100	
580.40000	 0.2122	
580.60000	 0.2145	
580.80000	 0.2164	
581.00000	 0.2185	
581.20000	 0.2197	
581.40000	 0.2202	
581.60000	 0.2213	
581.80000	 0.2223	
582.00000	 0.2225	
582.20000	 0.2231	
582.40000	 0.2225	
582.60000	 0.2225	
582.80000	 0.2216	
583.00000	 0.2209	
583.20000	 0.2203	
583.40000	 0.2194	
583.60000	 0.2188	
583.80000	 0.2180	
584.00000	 0.2167	
584.20000	 0.2158	
584.40000	 0.2145	
584.60000	 0.2130	
584.80000	 0.2101	
585.00000	 0.2078	
585.20000	 0.2040	
585.40000	 0.2011	
585.60000	 0.1982	
585.80000	 0.1952	
586.00000	 0.1923	
586.20000	 0.1901	
586.40000	 0.1877	
586.60000	 0.1857	
586.80000	 0.1830	
587.00000	 0.1805	
587.20000	 0.1784	
587.40000	 0.1759	
587.60000	 0.1741	
587.80000	 0.1730	
588.00000	 0.1714	
588.20000	 0.1692	
588.40000	 0.1680	
588.60000	 0.1665	
588.80000	 0.1649	
589.00000	 0.1636	
589.20000	 0.1630	
589.40000	 0.1616	
589.60000	 0.1610	
589.80000	 0.1593	
590.00000	 0.1579	
590.20000	 0.1566	
590.40000	 0.1550	
590.60000	 0.1537	
590.80000	 0.1537	
591.00000	 0.1540	
591.20000	 0.1553	
591.40000	 0.1558	
591.60000	 0.1569	
591.80000	 0.1570	
592.00000	 0.1576	
592.20000	 0.1591	
592.40000	 0.1605	
592.60000	 0.1614	
592.80000	 0.1634	
593.00000	 0.1662	
593.20000	 0.1698	
593.40000	 0.1724	
593.60000	 0.1749	
593.80000	 0.1770	
594.00000	 0.1787	
594.20000	 0.1805	
594.40000	 0.1822	
594.60000	 0.1839	
594.80000	 0.1866	
595.00000	 0.1889	
595.20000	 0.1907	
595.40000	 0.1924	
595.60000	 0.1949	
595.80000	 0.1965	
596.00000	 0.1985	
596.20000	 0.2011	
596.40000	 0.2042	
596.60000	 0.2071	
596.80000	 0.2089	
597.00000	 0.2110	
597.20000	 0.2126	
597.40000	 0.2139	
597.60000	 0.2159	
597.80000	 0.2167	
598.00000	 0.2173	
598.20000	 0.2176	
598.40000	 0.2180	
598.60000	 0.2179	
598.80000	 0.2182	
599.00000	 0.2168	
599.20000	 0.2164	
599.40000	 0.2155	
599.60000	 0.2142	
599.80000	 0.2130	
600.00000	 0.2115	
600.20000	 0.2104	
600.40000	 0.2089	
600.60000	 0.2074	
600.80000	 0.2055	
601.00000	 0.2040	
601.20000	 0.2019	
601.40000	 0.1988	
601.60000	 0.1958	
601.80000	 0.1913	
602.00000	 0.1874	
602.20000	 0.1842	
602.40000	 0.1814	
602.60000	 0.1775	
602.80000	 0.1749	
603.00000	 0.1715	
603.20000	 0.1686	
603.40000	 0.1656	
603.60000	 0.1630	
603.80000	 0.1602	
604.00000	 0.1573	
604.20000	 0.1550	
604.40000	 0.1529	
604.60000	 0.1505	
604.80000	 0.1482	
605.00000	 0.1463	
605.20000	 0.1443	
605.40000	 0.1419	
605.60000	 0.1399	
605.80000	 0.1384	
606.00000	 0.1370	
606.20000	 0.1355	
606.40000	 0.1335	
606.60000	 0.1315	
606.80000	 0.1297	
607.00000	 0.1276	
607.20000	 0.1253	
607.40000	 0.1248	
607.60000	 0.1247	
607.80000	 0.1253	
608.00000	 0.1251	
608.20000	 0.1257	
608.40000	 0.1257	
608.60000	 0.1262	
608.80000	 0.1270	
609.00000	 0.1277	
609.20000	 0.1283	
609.40000	 0.1300	
609.60000	 0.1320	
609.80000	 0.1350	
610.00000	 0.1376	
610.20000	 0.1396	
610.40000	 0.1414	
610.60000	 0.1422	
610.80000	 0.1445	
611.00000	 0.1456	
611.20000	 0.1471	
611.40000	 0.1495	
611.60000	 0.1512	
611.80000	 0.1529	
612.00000	 0.1543	
612.20000	 0.1564	
612.40000	 0.1579	
612.60000	 0.1601	
612.80000	 0.1624	
613.00000	 0.1645	
613.20000	 0.1669	
613.40000	 0.1691	
613.60000	 0.1711	
613.80000	 0.1727	
614.00000	 0.1738	
614.20000	 0.1756	
614.40000	 0.1764	
614.60000	 0.1772	
614.80000	 0.1773	
615.00000	 0.1778	
615.20000	 0.1776	
615.40000	 0.1775	
615.60000	 0.1770	
615.80000	 0.1761	
616.00000	 0.1755	
616.20000	 0.1740	
616.40000	 0.1729	
616.60000	 0.1714	
616.80000	 0.1707	
617.00000	 0.1686	
617.20000	 0.1674	
617.40000	 0.1656	
617.60000	 0.1645	
617.80000	 0.1628	
618.00000	 0.1596	
618.20000	 0.1567	
618.40000	 0.1526	
618.60000	 0.1489	
618.80000	 0.1463	
619.00000	 0.1431	
619.20000	 0.1395	
619.40000	 0.1367	
619.60000	 0.1338	
619.80000	 0.1314	
620.00000	 0.1285	
620.20000	 0.1263	
620.40000	 0.1236	
620.60000	 0.1213	
620.80000	 0.1190	
621.00000	 0.1169	
621.20000	 0.1155	
621.40000	 0.1137	
621.60000	 0.1114	
621.80000	 0.1102	
622.00000	 0.1080	
622.20000	 0.1065	
622.40000	 0.1053	
622.60000	 0.1044	
622.80000	 0.1031	
623.00000	 0.1019	
623.20000	 0.1003	
623.40000	 0.0990	
623.60000	 0.0970	
623.80000	 0.0954	
624.00000	 0.0951	
624.20000	 0.0948	
624.40000	 0.0957	
624.60000	 0.0967	
624.80000	 0.0970	
625.00000	 0.0981	
625.20000	 0.0989	
625.40000	 0.1001	
625.60000	 0.1007	
625.80000	 0.1022	
626.00000	 0.1038	
626.20000	 0.1060	
626.40000	 0.1091	
626.60000	 0.1126	
626.80000	 0.1143	
627.00000	 0.1164	
627.20000	 0.1183	
627.40000	 0.1204	
627.60000	 0.1222	
627.80000	 0.1242	
628.00000	 0.1268	
628.20000	 0.1291	
628.40000	 0.1312	
628.60000	 0.1331	
628.80000	 0.1355	
629.00000	 0.1376	
629.20000	 0.1396	
629.40000	 0.1425	
629.60000	 0.1453	
629.80000	 0.1479	
630.00000	 0.1506	
630.20000	 0.1532	
630.40000	 0.1552	
630.60000	 0.1564	
630.80000	 0.1585	
631.00000	 0.1598	
631.20000	 0.1611	
631.40000	 0.1616	
631.60000	 0.1624	
631.80000	 0.1630	
632.00000	 0.1628	
632.20000	 0.1633	
632.40000	 0.1625	
632.60000	 0.1624	
632.80000	 0.1613	
633.00000	 0.1605	
633.20000	 0.1596	
633.40000	 0.1590	
633.60000	 0.1579	
633.80000	 0.1573	
634.00000	 0.1562	
634.20000	 0.1550	
634.40000	 0.1538	
634.60000	 0.1515	
634.80000	 0.1488	
635.00000	 0.1462	
635.20000	 0.1425	
635.40000	 0.1398	
635.60000	 0.1370	
635.80000	 0.1338	
636.00000	 0.1311	
636.20000	 0.1286	
636.40000	 0.1268	
636.60000	 0.1245	
636.80000	 0.1221	
637.00000	 0.1201	
637.20000	 0.1178	
637.40000	 0.1157	
637.60000	 0.1140	
637.80000	 0.1129	
638.00000	 0.1115	
638.20000	 0.1096	
638.40000	 0.1083	
638.60000	 0.1071	
638.80000	 0.1056	
639.00000	 0.1044	
639.20000	 0.1036	
639.40000	 0.1031	
639.60000	 0.1022	
639.80000	 0.1012	
640.00000	 0.0996	
640.20000	 0.0981	
640.40000	 0.0969	
640.60000	 0.0960	
640.80000	 0.0961	
641.00000	 0.0970	
641.20000	 0.0986	
641.40000	 0.0992	
641.60000	 0.1001	
641.80000	 0.1012	
642.00000	 0.1021	
642.20000	 0.1038	
642.40000	 0.1051	
642.60000	 0.1067	
642.80000	 0.1086	
643.00000	 0.1117	
643.20000	 0.1158	
643.40000	 0.1181	
643.60000	 0.1204	
643.80000	 0.1225	
644.00000	 0.1247	
644.20000	 0.1271	
644.40000	 0.1283	
644.60000	 0.1309	
644.80000	 0.1337	
645.00000	 0.1363	
645.20000	 0.1385	
645.40000	 0.1407	
645.60000	 0.1433	
645.80000	 0.1454	
646.00000	 0.1479	
646.20000	 0.1509	
646.40000	 0.1540	
646.60000	 0.1566	
646.80000	 0.1596	
647.00000	 0.1619	
647.20000	 0.1639	
647.40000	 0.1660	
647.60000	 0.1677	
647.80000	 0.1688	
648.00000	 0.1700	
648.20000	 0.1709	
648.40000	 0.1717	
648.60000	 0.1717	
648.80000	 0.1727	
649.00000	 0.1718	
649.20000	 0.1718	
649.40000	 0.1715	
649.60000	 0.1709	
649.80000	 0.1701	
650.00000	 0.1692	
650.20000	 0.1691	
650.40000	 0.1680	
650.60000	 0.1669	
650.80000	 0.1660	
651.00000	 0.1653	
651.20000	 0.1637	
651.40000	 0.1611	
651.60000	 0.1593	
651.80000	 0.1553	
652.00000	 0.1526	
652.20000	 0.1503	
652.40000	 0.1480	
652.60000	 0.1445	
652.80000	 0.1427	
653.00000	 0.1407	
653.20000	 0.1384	
653.40000	 0.1361	
653.60000	 0.1343	
653.80000	 0.1321	
654.00000	 0.1300	
654.20000	 0.1286	
654.40000	 0.1277	
654.60000	 0.1270	
654.80000	 0.1247	
655.00000	 0.1234	
655.20000	 0.1227	
655.40000	 0.1210	
655.60000	 0.1199	
655.80000	 0.1193	
656.00000	 0.1184	
656.20000	 0.1183	
656.40000	 0.1166	
656.60000	 0.1158	
656.80000	 0.1146	
657.00000	 0.1134	
657.20000	 0.1120	
657.40000	 0.1125	
657.60000	 0.1131	
657.80000	 0.1146	
658.00000	 0.1155	
658.20000	 0.1170	
658.40000	 0.1178	
658.60000	 0.1189	
658.80000	 0.1205	
659.00000	 0.1219	
659.20000	 0.1233	
659.40000	 0.1256	
659.60000	 0.1279	
659.80000	 0.1315	
660.00000	 0.1350	
660.20000	 0.1372	
660.40000	 0.1396	
660.60000	 0.1416	
660.80000	 0.1440	
661.00000	 0.1457	
661.20000	 0.1479	
661.40000	 0.1503	
661.60000	 0.1532	
661.80000	 0.1553	
662.00000	 0.1575	
662.20000	 0.1604	
662.40000	 0.1624	
662.60000	 0.1648	
662.80000	 0.1677	
663.00000	 0.1709	
663.20000	 0.1740	
663.40000	 0.1767	
663.60000	 0.1788	
663.80000	 0.1810	
664.00000	 0.1830	
664.20000	 0.1848	
664.40000	 0.1863	
664.60000	 0.1878	
664.80000	 0.1883	
665.00000	 0.1891	
665.20000	 0.1895	
665.40000	 0.1901	
665.60000	 0.1903	
665.80000	 0.1903	
666.00000	 0.1898	
666.20000	 0.1892	
666.40000	 0.1888	
666.60000	 0.1883	
666.80000	 0.1877	
667.00000	 0.1868	
667.20000	 0.1860	
667.40000	 0.1849	
667.60000	 0.1839	
667.80000	 0.1830	
668.00000	 0.1808	
668.20000	 0.1787	
668.40000	 0.1750	
668.60000	 0.1720	
668.80000	 0.1700	
669.00000	 0.1674	
669.20000	 0.1648	
669.40000	 0.1625	
669.60000	 0.1604	
669.80000	 0.1579	
670.00000	 0.1559	
670.20000	 0.1543	
670.40000	 0.1521	
670.60000	 0.1501	
670.80000	 0.1486	
671.00000	 0.1469	
671.20000	 0.1462	
671.40000	 0.1445	
671.60000	 0.1431	
671.80000	 0.1421	
672.00000	 0.1407	
672.20000	 0.1396	
672.40000	 0.1385	
672.60000	 0.1382	
672.80000	 0.1373	
673.00000	 0.1367	
673.20000	 0.1358	
673.40000	 0.1341	
673.60000	 0.1334	
673.80000	 0.1321	
674.00000	 0.1321	
674.20000	 0.1328	
674.40000	 0.1341	
674.60000	 0.1353	
674.80000	 0.1361	
675.00000	 0.1372	
675.20000	 0.1384	
675.40000	 0.1402	
675.60000	 0.1414	
675.80000	 0.1425	
676.00000	 0.1447	
676.20000	 0.1469	
676.40000	 0.1503	
676.60000	 0.1544	
676.80000	 0.1566	
677.00000	 0.1587	
677.20000	 0.1608	
677.40000	 0.1631	
677.60000	 0.1649	
677.80000	 0.1674	
678.00000	 0.1697	
678.20000	 0.1723	
678.40000	 0.1744	
678.60000	 0.1764	
678.80000	 0.1791	
679.00000	 0.1813	
679.20000	 0.1839	
679.40000	 0.1866	
679.60000	 0.1894	
679.80000	 0.1926	
680.00000	 0.1952	
680.20000	 0.1971	
680.40000	 0.1996	
680.60000	 0.2013	
680.80000	 0.2034	
681.00000	 0.2048	
681.20000	 0.2057	
681.40000	 0.2065	
681.60000	 0.2077	
681.80000	 0.2078	
682.00000	 0.2081	
682.20000	 0.2090	
682.40000	 0.2081	
682.60000	 0.2083	
682.80000	 0.2072	
683.00000	 0.2069	
683.20000	 0.2061	
683.40000	 0.2055	
683.60000	 0.2042	
683.80000	 0.2037	
684.00000	 0.2025	
684.20000	 0.2013	
684.40000	 0.2000	
684.60000	 0.1979	
684.80000	 0.1958	
685.00000	 0.1927	
685.20000	 0.1895	
685.40000	 0.1869	
685.60000	 0.1849	
685.80000	 0.1819	
686.00000	 0.1793	
686.20000	 0.1772	
686.40000	 0.1750	
686.60000	 0.1727	
686.80000	 0.1711	
687.00000	 0.1691	
687.20000	 0.1668	
687.40000	 0.1648	
687.60000	 0.1634	
687.80000	 0.1624	
688.00000	 0.1607	
688.20000	 0.1588	
688.40000	 0.1579	
688.60000	 0.1562	
688.80000	 0.1550	
689.00000	 0.1538	
689.20000	 0.1532	
689.40000	 0.1527	
689.60000	 0.1520	
689.80000	 0.1506	
690.00000	 0.1494	
690.20000	 0.1480	
690.40000	 0.1465	
690.60000	 0.1462	
690.80000	 0.1465	
691.00000	 0.1476	
691.20000	 0.1486	
691.40000	 0.1494	
691.60000	 0.1503	
691.80000	 0.1511	
692.00000	 0.1523	
692.20000	 0.1540	
692.40000	 0.1547	
692.60000	 0.1562	
692.80000	 0.1585	
693.00000	 0.1613	
693.20000	 0.1649	
693.40000	 0.1669	
693.60000	 0.1694	
693.80000	 0.1707	
694.00000	 0.1724	
694.20000	 0.1749	
694.40000	 0.1762	
694.60000	 0.1788	
694.80000	 0.1810	
695.00000	 0.1834	
695.20000	 0.1855	
695.40000	 0.1872	
695.60000	 0.1898	
695.80000	 0.1920	
696.00000	 0.1942	
696.20000	 0.1971	
696.40000	 0.1997	
696.60000	 0.2019	
696.80000	 0.2048	
697.00000	 0.2068	
697.20000	 0.2080	
697.40000	 0.2101	
697.60000	 0.2119	
697.80000	 0.2124	
698.00000	 0.2133	
698.20000	 0.2141	
698.40000	 0.2145	
698.60000	 0.2145	
698.80000	 0.2153	
699.00000	 0.2141	
699.20000	 0.2142	
699.40000	 0.2133	
699.60000	 0.2126	
699.80000	 0.2116	
700.00000	 0.2109	
700.20000	 0.2100	
700.40000	 0.2090	
700.60000	 0.2077	
700.80000	 0.2068	
701.00000	 0.2052	
701.20000	 0.2039	
701.40000	 0.2014	
701.60000	 0.1987	
701.80000	 0.1950	
702.00000	 0.1927	
702.20000	 0.1901	
702.40000	 0.1872	
702.60000	 0.1843	
702.80000	 0.1822	
703.00000	 0.1802	
703.20000	 0.1779	
703.40000	 0.1759	
703.60000	 0.1740	
703.80000	 0.1717	
704.00000	 0.1695	
704.20000	 0.1674	
704.40000	 0.1666	
704.60000	 0.1649	
704.80000	 0.1633	
705.00000	 0.1619	
705.20000	 0.1605	
705.40000	 0.1590	
705.60000	 0.1581	
705.80000	 0.1570	
706.00000	 0.1562	
706.20000	 0.1553	
706.40000	 0.1537	
706.60000	 0.1527	
706.80000	 0.1512	
707.00000	 0.1500	
707.20000	 0.1485	
707.40000	 0.1489	
707.60000	 0.1494	
707.80000	 0.1506	
708.00000	 0.1511	
708.20000	 0.1524	
708.40000	 0.1524	
708.60000	 0.1540	
708.80000	 0.1552	
709.00000	 0.1559	
709.20000	 0.1573	
709.40000	 0.1596	
709.60000	 0.1617	
709.80000	 0.1653	
710.00000	 0.1680	
710.20000	 0.1698	
710.40000	 0.1717	
710.60000	 0.1735	
710.80000	 0.1758	
711.00000	 0.1775	
711.20000	 0.1793	
711.40000	 0.1817	
711.60000	 0.1840	
711.80000	 0.1859	
712.00000	 0.1880	
712.20000	 0.1898	
712.40000	 0.1920	
712.60000	 0.1941	
712.80000	 0.1970	
713.00000	 0.1996	
713.20000	 0.2020	
713.40000	 0.2048	
713.60000	 0.2071	
713.80000	 0.2084	
714.00000	 0.2103	
714.20000	 0.2116	
714.40000	 0.2122	
714.60000	 0.2136	
714.80000	 0.2138	
715.00000	 0.2144	
715.20000	 0.2144	
715.40000	 0.2147	
715.60000	 0.2139	
715.80000	 0.2136	
716.00000	 0.2132	
716.20000	 0.2119	
716.40000	 0.2112	
716.60000	 0.2101	
716.80000	 0.2100	
717.00000	 0.2086	
717.20000	 0.2075	
717.40000	 0.2063	
717.60000	 0.2049	
717.80000	 0.2036	
718.00000	 0.2010	
718.20000	 0.1987	
718.40000	 0.1950	
718.60000	 0.1923	
718.80000	 0.1900	
719.00000	 0.1869	
719.20000	 0.1840	
719.40000	 0.1820	
719.60000	 0.1797	
719.80000	 0.1776	
720.00000	 0.1753	
720.20000	 0.1730	
720.40000	 0.1711	
720.60000	 0.1688	
720.80000	 0.1669	
721.00000	 0.1656	
721.20000	 0.1640	
721.40000	 0.1624	
721.60000	 0.1608	
721.80000	 0.1593	
722.00000	 0.1576	
722.20000	 0.1564	
722.40000	 0.1553	
722.60000	 0.1547	
722.80000	 0.1540	
723.00000	 0.1527	
723.20000	 0.1518	
723.40000	 0.1500	
723.60000	 0.1489	
723.80000	 0.1474	
724.00000	 0.1476	
724.20000	 0.1476	
724.40000	 0.1489	
724.60000	 0.1498	
724.80000	 0.1505	
725.00000	 0.1511	
725.20000	 0.1520	
725.40000	 0.1534	
725.60000	 0.1544	
725.80000	 0.1561	
726.00000	 0.1576	
726.20000	 0.1593	
726.40000	 0.1622	
726.60000	 0.1651	
726.80000	 0.1675	
727.00000	 0.1694	
727.20000	 0.1709	
727.40000	 0.1732	
727.60000	 0.1746	
727.80000	 0.1761	
728.00000	 0.1784	
728.20000	 0.1808	
728.40000	 0.1826	
728.60000	 0.1845	
728.80000	 0.1868	
729.00000	 0.1889	
729.20000	 0.1907	
729.40000	 0.1933	
729.60000	 0.1956	
729.80000	 0.1985	
730.00000	 0.2013	
730.20000	 0.2031	
730.40000	 0.2048	
730.60000	 0.2065	
730.80000	 0.2080	
731.00000	 0.2090	
731.20000	 0.2100	
731.40000	 0.2103	
731.60000	 0.2115	
731.80000	 0.2112	
732.00000	 0.2113	
732.20000	 0.2116	
732.40000	 0.2109	
732.60000	 0.2100	
732.80000	 0.2092	
733.00000	 0.2086	
733.20000	 0.2078	
733.40000	 0.2072	
733.60000	 0.2060	
733.80000	 0.2049	
734.00000	 0.2036	
734.20000	 0.2026	
734.40000	 0.2008	
734.60000	 0.1990	
734.80000	 0.1965	
735.00000	 0.1929	
735.20000	 0.1900	
735.40000	 0.1878	
735.60000	 0.1849	
735.80000	 0.1820	
736.00000	 0.1794	
736.20000	 0.1775	
736.40000	 0.1752	
736.60000	 0.1730	
736.80000	 0.1706	
737.00000	 0.1689	
737.20000	 0.1666	
737.40000	 0.1648	
737.60000	 0.1631	
737.80000	 0.1622	
738.00000	 0.1601	
738.20000	 0.1584	
738.40000	 0.1573	
738.60000	 0.1555	
738.80000	 0.1541	
739.00000	 0.1530	
739.20000	 0.1523	
739.40000	 0.1515	
739.60000	 0.1506	
739.80000	 0.1495	
740.00000	 0.1480	
740.20000	 0.1468	
740.40000	 0.1457	
740.60000	 0.1453	
740.80000	 0.1454	
741.00000	 0.1465	
741.20000	 0.1476	
741.40000	 0.1483	
741.60000	 0.1491	
741.80000	 0.1498	
742.00000	 0.1512	
742.20000	 0.1524	
742.40000	 0.1532	
742.60000	 0.1547	
742.80000	 0.1566	
743.00000	 0.1591	
743.20000	 0.1627	
743.40000	 0.1648	
743.60000	 0.1665	
743.80000	 0.1682	
744.00000	 0.1701	
744.20000	 0.1717	
744.40000	 0.1733	
744.60000	 0.1756	
744.80000	 0.1781	
745.00000	 0.1801	
745.20000	 0.1817	
745.40000	 0.1837	
745.60000	 0.1860	
745.80000	 0.1880	
746.00000	 0.1907	
746.20000	 0.1930	
746.40000	 0.1958	
746.60000	 0.1982	
746.80000	 0.2000	
747.00000	 0.2022	
747.20000	 0.2031	
747.40000	 0.2051	
747.60000	 0.2068	
747.80000	 0.2071	
748.00000	 0.2078	
748.20000	 0.2084	
748.40000	 0.2084	
748.60000	 0.2084	
748.80000	 0.2092	
749.00000	 0.2081	
749.20000	 0.2080	
749.40000	 0.2069	
749.60000	 0.2065	
749.80000	 0.2055	
750.00000	 0.2049	
750.20000	 0.2036	
750.40000	 0.2031	
750.60000	 0.2017	
750.80000	 0.2007	
751.00000	 0.1991	
751.20000	 0.1976	
751.40000	 0.1952	
751.60000	 0.1923	
751.80000	 0.1886	
752.00000	 0.1868	
752.20000	 0.1842	
752.40000	 0.1819	
752.60000	 0.1785	
752.80000	 0.1764	
753.00000	 0.1741	
753.20000	 0.1721	
753.40000	 0.1701	
753.60000	 0.1683	
753.80000	 0.1660	
754.00000	 0.1640	
754.20000	 0.1624	
754.40000	 0.1613	
754.60000	 0.1598	
754.80000	 0.1579	
755.00000	 0.1567	
755.20000	 0.1553	
755.40000	 0.1540	
755.60000	 0.1524	
755.80000	 0.1520	
756.00000	 0.1511	
756.20000	 0.1503	
756.40000	 0.1486	
756.60000	 0.1480	
756.80000	 0.1466	
757.00000	 0.1453	
757.20000	 0.1442	
757.40000	 0.1445	
757.60000	 0.1456	
757.80000	 0.1463	
758.00000	 0.1471	
758.20000	 0.1479	
758.40000	 0.1485	
758.60000	 0.1498	
758.80000	 0.1512	
759.00000	 0.1517	
759.20000	 0.1527	
759.40000	 0.1552	
759.60000	 0.1573	
759.80000	 0.1608	
760.00000	 0.1630	
760.20000	 0.1651	
760.40000	 0.1671	
760.60000	 0.1682	
760.80000	 0.1707	
761.00000	 0.1721	
761.20000	 0.1740	
761.40000	 0.1764	
761.60000	 0.1785	
761.80000	 0.1804	
762.00000	 0.1822	
762.20000	 0.1846	
762.40000	 0.1866	
762.60000	 0.1889	
762.80000	 0.1915	
763.00000	 0.1941	
763.20000	 0.1964	
763.40000	 0.1985	
763.60000	 0.2005	
763.80000	 0.2022	
764.00000	 0.2034	
764.20000	 0.2054	
764.40000	 0.2057	
764.60000	 0.2069	
764.80000	 0.2072	
765.00000	 0.2077	
765.20000	 0.2075	
765.40000	 0.2080	
765.60000	 0.2071	
765.80000	 0.2071	
766.00000	 0.2060	
766.20000	 0.2051	
766.40000	 0.2043	
766.60000	 0.2031	
766.80000	 0.2026	
767.00000	 0.2016	
767.20000	 0.2005	
767.40000	 0.1996	
767.60000	 0.1982	
767.80000	 0.1970	
768.00000	 0.1945	
768.20000	 0.1923	
768.40000	 0.1891	
768.60000	 0.1868	
768.80000	 0.1842	
769.00000	 0.1817	
769.20000	 0.1784	
769.40000	 0.1762	
769.60000	 0.1743	
769.80000	 0.1721	
770.00000	 0.1701	
770.20000	 0.1682	
770.40000	 0.1666	
770.60000	 0.1640	
770.80000	 0.1622	
771.00000	 0.1613	
771.20000	 0.1598	
771.40000	 0.1576	
771.60000	 0.1564	
771.80000	 0.1549	
772.00000	 0.1530	
772.20000	 0.1520	
772.40000	 0.1511	
772.60000	 0.1506	
772.80000	 0.1500	
773.00000	 0.1485	
773.20000	 0.1477	
773.40000	 0.1462	
773.60000	 0.1450	
773.80000	 0.1436	
774.00000	 0.1442	
774.20000	 0.1442	
774.40000	 0.1459	
774.60000	 0.1463	
774.80000	 0.1474	
775.00000	 0.1477	
775.20000	 0.1488	
775.40000	 0.1505	
775.60000	 0.1509	
775.80000	 0.1527	
776.00000	 0.1544	
776.20000	 0.1566	
776.40000	 0.1596	
776.60000	 0.1622	
776.80000	 0.1639	
777.00000	 0.1657	
777.20000	 0.1674	
777.40000	 0.1695	
777.60000	 0.1712	
777.80000	 0.1729	
778.00000	 0.1749	
778.20000	 0.1775	
778.40000	 0.1793	
778.60000	 0.1813	
778.80000	 0.1836	
779.00000	 0.1852	
779.20000	 0.1872	
779.40000	 0.1903	
779.60000	 0.1926	
779.80000	 0.1947	
780.00000	 0.1971	
780.20000	 0.1994	
780.40000	 0.2013	
780.60000	 0.2025	
780.80000	 0.2040	
781.00000	 0.2051	
781.20000	 0.2058	
781.40000	 0.2065	
781.60000	 0.2072	
781.80000	 0.2069	
782.00000	 0.2074	
782.20000	 0.2069	
782.40000	 0.2065	
782.60000	 0.2058	
782.80000	 0.2043	
783.00000	 0.2039	
783.20000	 0.2031	
783.40000	 0.2025	
783.60000	 0.2016	
783.80000	 0.2003	
784.00000	 0.1994	
784.20000	 0.1984	
784.40000	 0.1973	
784.60000	 0.1947	
784.80000	 0.1926	
785.00000	 0.1892	
785.20000	 0.1863	
785.40000	 0.1846	
785.60000	 0.1819	
785.80000	 0.1788	
786.00000	 0.1770	
786.20000	 0.1746	
786.40000	 0.1724	
786.60000	 0.1707	
786.80000	 0.1683	
787.00000	 0.1668	
787.20000	 0.1643	
787.40000	 0.1628	
787.60000	 0.1616	
787.80000	 0.1604	
788.00000	 0.1585	
788.20000	 0.1570	
788.40000	 0.1559	
788.60000	 0.1541	
788.80000	 0.1530	
789.00000	 0.1515	
789.20000	 0.1509	
789.40000	 0.1505	
789.60000	 0.1495	
789.80000	 0.1485	
790.00000	 0.1469	
790.20000	 0.1460	
790.40000	 0.1442	
790.60000	 0.1440	
790.80000	 0.1445	
791.00000	 0.1459	
791.20000	 0.1468	
791.40000	 0.1471	
791.60000	 0.1480	
791.80000	 0.1488	
792.00000	 0.1505	
792.20000	 0.1511	
792.40000	 0.1526	
792.60000	 0.1541	
792.80000	 0.1562	
793.00000	 0.1584	
793.20000	 0.1616	
793.40000	 0.1637	
793.60000	 0.1654	
793.80000	 0.1671	
794.00000	 0.1692	
794.20000	 0.1707	
794.40000	 0.1717	
794.60000	 0.1741	
794.80000	 0.1767	
795.00000	 0.1787	
795.20000	 0.1802	
795.40000	 0.1825	
795.60000	 0.1842	
795.80000	 0.1863	
796.00000	 0.1888	
796.20000	 0.1910	
796.40000	 0.1935	
796.60000	 0.1961	
796.80000	 0.1979	
797.00000	 0.1996	
797.20000	 0.2008	
797.40000	 0.2026	
797.60000	 0.2039	
797.80000	 0.2043	
798.00000	 0.2052	
798.20000	 0.2057	
798.40000	 0.2055	
798.60000	 0.2057	
798.80000	 0.2058	
799.00000	 0.2049	
799.20000	 0.2042	
799.40000	 0.2034	
799.60000	 0.2029	
799.80000	 0.2020	
800.00000	 0.2016	
800.20000	 0.2003	
800.40000	 0.1994	
800.60000	 0.1982	
800.80000	 0.1971	
801.00000	 0.1958	
801.20000	 0.1941	
801.40000	 0.1920	
801.60000	 0.1891	
801.80000	 0.1857	
802.00000	 0.1834	
802.20000	 0.1814	
802.40000	 0.1782	
802.60000	 0.1759	
802.80000	 0.1740	
803.00000	 0.1717	
803.20000	 0.1697	
803.40000	 0.1674	
803.60000	 0.1657	
803.80000	 0.1636	
804.00000	 0.1617	
804.20000	 0.1601	
804.40000	 0.1590	
804.60000	 0.1575	
804.80000	 0.1559	
805.00000	 0.1547	
805.20000	 0.1530	
805.40000	 0.1518	
805.60000	 0.1506	
805.80000	 0.1500	
806.00000	 0.1494	
806.20000	 0.1488	
806.40000	 0.1474	
806.60000	 0.1462	
806.80000	 0.1450	
807.00000	 0.1437	
807.20000	 0.1431	
807.40000	 0.1433	
807.60000	 0.1442	
807.80000	 0.1453	
808.00000	 0.1457	
808.20000	 0.1466	
808.40000	 0.1474	
808.60000	 0.1489	
808.80000	 0.1500	
809.00000	 0.1512	
809.20000	 0.1526	
809.40000	 0.1541	
809.60000	 0.1561	
809.80000	 0.1596	
810.00000	 0.1613	
810.20000	 0.1633	
810.40000	 0.1649	
810.60000	 0.1666	
810.80000	 0.1686	
811.00000	 0.1698	
811.20000	 0.1718	
811.40000	 0.1741	
811.60000	 0.1761	
811.80000	 0.1776	
812.00000	 0.1797	
812.20000	 0.1817	
812.40000	 0.1837	
812.60000	 0.1860	
812.80000	 0.1881	
813.00000	 0.1909	
813.20000	 0.1932	
813.40000	 0.1950	
813.60000	 0.1973	
813.80000	 0.1991	
814.00000	 0.2003	
814.20000	 0.2016	
814.40000	 0.2019	
814.60000	 0.2028	
814.80000	 0.2034	
815.00000	 0.2039	
815.20000	 0.2036	
815.40000	 0.2037	
815.60000	 0.2028	
815.80000	 0.2026	
816.00000	 0.2020	
816.20000	 0.2010	
816.40000	 0.2005	
816.60000	 0.1999	
816.80000	 0.1988	
817.00000	 0.1976	
817.20000	 0.1968	
817.40000	 0.1956	
817.60000	 0.1944	
817.80000	 0.1927	
818.00000	 0.1903	
818.20000	 0.1878	
818.40000	 0.1846	
818.60000	 0.1828	
818.80000	 0.1805	
819.00000	 0.1782	
819.20000	 0.1750	
819.40000	 0.1730	
819.60000	 0.1712	
819.80000	 0.1692	
820.00000	 0.1671	
820.20000	 0.1654	
820.40000	 0.1633	
820.60000	 0.1611	
820.80000	 0.1596	
821.00000	 0.1587	
821.20000	 0.1573	
821.40000	 0.1550	
821.60000	 0.1544	
821.80000	 0.1529	
822.00000	 0.1512	
822.20000	 0.1500	
822.40000	 0.1494	
822.60000	 0.1486	
822.80000	 0.1482	
823.00000	 0.1465	
823.20000	 0.1456	
823.40000	 0.1445	
823.60000	 0.1433	
823.80000	 0.1422	
824.00000	 0.1422	
824.20000	 0.1431	
824.40000	 0.1442	
824.60000	 0.1453	
824.80000	 0.1459	
825.00000	 0.1466	
825.20000	 0.1477	
825.40000	 0.1491	
825.60000	 0.1498	
825.80000	 0.1508	
826.00000	 0.1527	
826.20000	 0.1546	
826.40000	 0.1576	
826.60000	 0.1598	
826.80000	 0.1617	
827.00000	 0.1633	
827.20000	 0.1649	
827.40000	 0.1668	
827.60000	 0.1680	
827.80000	 0.1697	
828.00000	 0.1721	
828.20000	 0.1740	
828.40000	 0.1758	
828.60000	 0.1775	
828.80000	 0.1797	
829.00000	 0.1819	
829.20000	 0.1842	
829.40000	 0.1865	
829.60000	 0.1884	
829.80000	 0.1910	
830.00000	 0.1929	
830.20000	 0.1949	
830.40000	 0.1967	
830.60000	 0.1978	
830.80000	 0.1993	
831.00000	 0.2003	
831.20000	 0.2010	
831.40000	 0.2014	
831.60000	 0.2019	
831.80000	 0.2019	
832.00000	 0.2020	
832.20000	 0.2016	
832.40000	 0.2011	
832.60000	 0.2011	
832.80000	 0.2000	
833.00000	 0.1993	
833.20000	 0.1985	
833.40000	 0.1979	
833.60000	 0.1970	
833.80000	 0.1958	
834.00000	 0.1947	
834.20000	 0.1939	
834.40000	 0.1921	
834.60000	 0.1892	
834.80000	 0.1878	
835.00000	 0.1848	
835.20000	 0.1820	
835.40000	 0.1802	
835.60000	 0.1781	
835.80000	 0.1746	
836.00000	 0.1723	
836.20000	 0.1706	
836.40000	 0.1682	
836.60000	 0.1665	
836.80000	 0.1646	
837.00000	 0.1627	
837.20000	 0.1604	
837.40000	 0.1587	
837.60000	 0.1579	
837.80000	 0.1566	
838.00000	 0.1552	
838.20000	 0.1540	
838.40000	 0.1524	
838.60000	 0.1508	
838.80000	 0.1497	
839.00000	 0.1485	
839.20000	 0.1480	
839.40000	 0.1471	
839.60000	 0.1463	
839.80000	 0.1453	
840.00000	 0.1439	
840.20000	 0.1428	
840.40000	 0.1416	
840.60000	 0.1416	
840.80000	 0.1419	
841.00000	 0.1433	
841.20000	 0.1442	
841.40000	 0.1448	
841.60000	 0.1456	
841.80000	 0.1460	
842.00000	 0.1477	
842.20000	 0.1483	
842.40000	 0.1497	
842.60000	 0.1511	
842.80000	 0.1530	
843.00000	 0.1555	
843.20000	 0.1581	
843.40000	 0.1601	
843.60000	 0.1619	
843.80000	 0.1633	
844.00000	 0.1649	
844.20000	 0.1669	
844.40000	 0.1678	
844.60000	 0.1701	
844.80000	 0.1723	
845.00000	 0.1744	
845.20000	 0.1762	
845.40000	 0.1784	
845.60000	 0.1801	
845.80000	 0.1822	
846.00000	 0.1848	
846.20000	 0.1869	
846.40000	 0.1891	
846.60000	 0.1915	
846.80000	 0.1933	
847.00000	 0.1949	
847.20000	 0.1962	
847.40000	 0.1976	
847.60000	 0.1987	
847.80000	 0.1994	
848.00000	 0.1999	
848.20000	 0.2007	
848.40000	 0.2005	
848.60000	 0.2007	
848.80000	 0.2008	
849.00000	 0.1999	
849.20000	 0.1994	
849.40000	 0.1987	
849.60000	 0.1978	
849.80000	 0.1971	
850.00000	 0.1970	
850.20000	 0.1955	
850.40000	 0.1947	
850.60000	 0.1935	
850.80000	 0.1924	
851.00000	 0.1912	
851.20000	 0.1891	
851.40000	 0.1869	
851.60000	 0.1840	
851.80000	 0.1814	
852.00000	 0.1794	
852.20000	 0.1775	
852.40000	 0.1740	
852.60000	 0.1720	
852.80000	 0.1700	
853.00000	 0.1678	
853.20000	 0.1660	
853.40000	 0.1643	
853.60000	 0.1624	
853.80000	 0.1604	
854.00000	 0.1587	
854.20000	 0.1570	
854.40000	 0.1561	
854.60000	 0.1547	
854.80000	 0.1527	
855.00000	 0.1517	
855.20000	 0.1501	
855.40000	 0.1489	
855.60000	 0.1479	
855.80000	 0.1471	
856.00000	 0.1465	
856.20000	 0.1460	
856.40000	 0.1445	
856.60000	 0.1436	
856.80000	 0.1427	
857.00000	 0.1416	
857.20000	 0.1413	
857.40000	 0.1419	
857.60000	 0.1428	
857.80000	 0.1434	
858.00000	 0.1445	
858.20000	 0.1447	
858.40000	 0.1459	
858.60000	 0.1468	
858.80000	 0.1479	
859.00000	 0.1491	
859.20000	 0.1503	
859.40000	 0.1520	
859.60000	 0.1544	
859.80000	 0.1573	
860.00000	 0.1588	
860.20000	 0.1605	
860.40000	 0.1625	
860.60000	 0.1639	
860.80000	 0.1659	
861.00000	 0.1671	
861.20000	 0.1689	
861.40000	 0.1709	
861.60000	 0.1732	
861.80000	 0.1749	
862.00000	 0.1765	
862.20000	 0.1785	
862.40000	 0.1808	
862.60000	 0.1831	
862.80000	 0.1852	
863.00000	 0.1880	
863.20000	 0.1898	
863.40000	 0.1915	
863.60000	 0.1932	
863.80000	 0.1947	
864.00000	 0.1961	
864.20000	 0.1971	
864.40000	 0.1978	
864.60000	 0.1985	
864.80000	 0.1991	
865.00000	 0.1993	
865.20000	 0.1993	
865.40000	 0.1996	
865.60000	 0.1987	
865.80000	 0.1985	
866.00000	 0.1974	
866.20000	 0.1968	
866.40000	 0.1958	
866.60000	 0.1955	
866.80000	 0.1945	
867.00000	 0.1933	
867.20000	 0.1924	
867.40000	 0.1913	
867.60000	 0.1904	
867.80000	 0.1886	
868.00000	 0.1868	
868.20000	 0.1840	
868.40000	 0.1805	
868.60000	 0.1791	
868.80000	 0.1770	
869.00000	 0.1743	
869.20000	 0.1718	
869.40000	 0.1698	
869.60000	 0.1678	
869.80000	 0.1659	
870.00000	 0.1639	
870.20000	 0.1624	
870.40000	 0.1604	
870.60000	 0.1584	
870.80000	 0.1569	
871.00000	 0.1561	
871.20000	 0.1547	
871.40000	 0.1524	
871.60000	 0.1515	
871.80000	 0.1500	
872.00000	 0.1485	
872.20000	 0.1474	
872.40000	 0.1466	
872.60000	 0.1462	
872.80000	 0.1456	
873.00000	 0.1440	
873.20000	 0.1434	
873.40000	 0.1421	
873.60000	 0.1410	
873.80000	 0.1401	
874.00000	 0.1404	
874.20000	 0.1413	
874.40000	 0.1422	
874.60000	 0.1428	
874.80000	 0.1439	
875.00000	 0.1445	
875.20000	 0.1457	
875.40000	 0.1471	
875.60000	 0.1479	
875.80000	 0.1491	
876.00000	 0.1505	
876.20000	 0.1526	
876.40000	 0.1559	
876.60000	 0.1581	
876.80000	 0.1593	
877.00000	 0.1613	
877.20000	 0.1625	
877.40000	 0.1646	
877.60000	 0.1654	
877.80000	 0.1674	
878.00000	 0.1697	
878.20000	 0.1718	
878.40000	 0.1735	
878.60000	 0.1755	
878.80000	 0.1775	
879.00000	 0.1794	
879.20000	 0.1817	
879.40000	 0.1840	
879.60000	 0.1859	
879.80000	 0.1880	
880.00000	 0.1903	
880.20000	 0.1918	
880.40000	 0.1936	
880.60000	 0.1949	
880.80000	 0.1962	
881.00000	 0.1967	
881.20000	 0.1973	
881.40000	 0.1984	
881.60000	 0.1985	
881.80000	 0.1982	
882.00000	 0.1982	
882.20000	 0.1971	
882.40000	 0.1973	
882.60000	 0.1967	
882.80000	 0.1961	
883.00000	 0.1952	
883.20000	 0.1945	
883.40000	 0.1935	
883.60000	 0.1929	
883.80000	 0.1920	
884.00000	 0.1910	
884.20000	 0.1901	
884.40000	 0.1888	
884.60000	 0.1866	
884.80000	 0.1845	
885.00000	 0.1814	
885.20000	 0.1793	
885.40000	 0.1773	
885.60000	 0.1750	
885.80000	 0.1718	
886.00000	 0.1701	
886.20000	 0.1683	
886.40000	 0.1662	
886.60000	 0.1646	
886.80000	 0.1628	
887.00000	 0.1616	
887.20000	 0.1591	
887.40000	 0.1575	
887.60000	 0.1567	
887.80000	 0.1552	
888.00000	 0.1532	
888.20000	 0.1526	
888.40000	 0.1511	
888.60000	 0.1497	
888.80000	 0.1485	
889.00000	 0.1474	
889.20000	 0.1465	
889.40000	 0.1463	
889.60000	 0.1453	
889.80000	 0.1442	
890.00000	 0.1431	
890.20000	 0.1419	
890.40000	 0.1405	
890.60000	 0.1410	
890.80000	 0.1413	
891.00000	 0.1427	
891.20000	 0.1434	
891.40000	 0.1437	
891.60000	 0.1445	
891.80000	 0.1457	
892.00000	 0.1468	
892.20000	 0.1476	
892.40000	 0.1491	
892.60000	 0.1506	
892.80000	 0.1521	
893.00000	 0.1549	
893.20000	 0.1572	
893.40000	 0.1588	
893.60000	 0.1607	
893.80000	 0.1616	
894.00000	 0.1636	
894.20000	 0.1651	
894.40000	 0.1665	
894.60000	 0.1683	
894.80000	 0.1706	
895.00000	 0.1724	
895.20000	 0.1741	
895.40000	 0.1758	
895.60000	 0.1778	
895.80000	 0.1802	
896.00000	 0.1820	
896.20000	 0.1840	
896.40000	 0.1865	
896.60000	 0.1886	
896.80000	 0.1903	
897.00000	 0.1921	
897.20000	 0.1932	
897.40000	 0.1945	
897.60000	 0.1953	
897.80000	 0.1962	
898.00000	 0.1968	
898.20000	 0.1974	
898.40000	 0.1973	
898.60000	 0.1973	
898.80000	 0.1970	
899.00000	 0.1962	
899.20000	 0.1955	
899.40000	 0.1949	
899.60000	 0.1941	
899.80000	 0.1932	
900.00000	 0.1930	
900.20000	 0.1923	
900.40000	 0.1910	
900.60000	 0.1904	
900.80000	 0.1892	
901.00000	 0.1878	
901.20000	 0.1859	
901.40000	 0.1839	
901.60000	 0.1810	
901.80000	 0.1784	
902.00000	 0.1767	
902.20000	 0.1744	
902.40000	 0.1714	
902.60000	 0.1697	
902.80000	 0.1678	
903.00000	 0.1657	
903.20000	 0.1643	
903.40000	 0.1627	
903.60000	 0.1607	
903.80000	 0.1584	
904.00000	 0.1570	
904.20000	 0.1558	
904.40000	 0.1549	
904.60000	 0.1530	
904.80000	 0.1518	
905.00000	 0.1506	
905.20000	 0.1488	
905.40000	 0.1477	
905.60000	 0.1466	
905.80000	 0.1460	
906.00000	 0.1456	
906.20000	 0.1445	
906.40000	 0.1433	
906.60000	 0.1421	
906.80000	 0.1414	
907.00000	 0.1402	
907.20000	 0.1398	
907.40000	 0.1404	
907.60000	 0.1414	
907.80000	 0.1424	
908.00000	 0.1433	
908.20000	 0.1440	
908.40000	 0.1445	
908.60000	 0.1460	
908.80000	 0.1471	
909.00000	 0.1486	
909.20000	 0.1498	
909.40000	 0.1512	
909.60000	 0.1534	
909.80000	 0.1561	
910.00000	 0.1581	
910.20000	 0.1595	
910.40000	 0.1610	
910.60000	 0.1628	
910.80000	 0.1643	
911.00000	 0.1659	
911.20000	 0.1677	
911.40000	 0.1697	
911.60000	 0.1712	
911.80000	 0.1729	
912.00000	 0.1752	
912.20000	 0.1767	
912.40000	 0.1785	
912.60000	 0.1810	
912.80000	 0.1830	
913.00000	 0.1851	
913.20000	 0.1874	
913.40000	 0.1892	
913.60000	 0.1907	
913.80000	 0.1921	
914.00000	 0.1935	
914.20000	 0.1945	
914.40000	 0.1952	
914.60000	 0.1958	
914.80000	 0.1962	
915.00000	 0.1964	
915.20000	 0.1965	
915.40000	 0.1965	
915.60000	 0.1955	
915.80000	 0.1952	
916.00000	 0.1945	
916.20000	 0.1939	
916.40000	 0.1933	
916.60000	 0.1929	
916.80000	 0.1923	
917.00000	 0.1910	
917.20000	 0.1903	
917.40000	 0.1889	
917.60000	 0.1881	
917.80000	 0.1860	
918.00000	 0.1845	
918.20000	 0.1819	
918.40000	 0.1788	
918.60000	 0.1773	
918.80000	 0.1755	
919.00000	 0.1723	
919.20000	 0.1701	
919.40000	 0.1686	
919.60000	 0.1662	
919.80000	 0.1646	
920.00000	 0.1631	
920.20000	 0.1613	
920.40000	 0.1591	
920.60000	 0.1575	
920.80000	 0.1562	
921.00000	 0.1553	
921.20000	 0.1543	
921.40000	 0.1521	
921.60000	 0.1511	
921.80000	 0.1495	
922.00000	 0.1485	
922.20000	 0.1474	
922.40000	 0.1463	
922.60000	 0.1462	
922.80000	 0.1456	
923.00000	 0.1440	
923.20000	 0.1434	
923.40000	 0.1422	
923.60000	 0.1411	
923.80000	 0.1402	
924.00000	 0.1410	
924.20000	 0.1419	
924.40000	 0.1431	
924.60000	 0.1434	
924.80000	 0.1443	
925.00000	 0.1450	
925.20000	 0.1463	
925.40000	 0.1476	
925.60000	 0.1482	
925.80000	 0.1497	
926.00000	 0.1515	
926.20000	 0.1527	
926.40000	 0.1562	
926.60000	 0.1579	
926.80000	 0.1590	
927.00000	 0.1607	
927.20000	 0.1625	
927.40000	 0.1637	
927.60000	 0.1651	
927.80000	 0.1668	
928.00000	 0.1688	
928.20000	 0.1707	
928.40000	 0.1724	
928.60000	 0.1743	
928.80000	 0.1764	
929.00000	 0.1781	
929.20000	 0.1804	
929.40000	 0.1826	
929.60000	 0.1848	
929.80000	 0.1869	
930.00000	 0.1888	
930.20000	 0.1903	
930.40000	 0.1918	
930.60000	 0.1927	
930.80000	 0.1942	
931.00000	 0.1947	
931.20000	 0.1955	
931.40000	 0.1958	
931.60000	 0.1962	
931.80000	 0.1958	
932.00000	 0.1967	
932.20000	 0.1953	
932.40000	 0.1950	
932.60000	 0.1942	
932.80000	 0.1935	
933.00000	 0.1932	
933.20000	 0.1927	
933.40000	 0.1921	
933.60000	 0.1913	
933.80000	 0.1900	
934.00000	 0.1891	
934.20000	 0.1878	
934.40000	 0.1866	
934.60000	 0.1843	
934.80000	 0.1826	
935.00000	 0.1793	
935.20000	 0.1776	
935.40000	 0.1756	
935.60000	 0.1735	
935.80000	 0.1711	
936.00000	 0.1691	
936.20000	 0.1672	
936.40000	 0.1651	
936.60000	 0.1631	
936.80000	 0.1617	
937.00000	 0.1604	
937.20000	 0.1584	
937.40000	 0.1566	
937.60000	 0.1561	
937.80000	 0.1549	
938.00000	 0.1529	
938.20000	 0.1518	
938.40000	 0.1505	
938.60000	 0.1489	
938.80000	 0.1477	
939.00000	 0.1469	
939.20000	 0.1463	
939.40000	 0.1462	
939.60000	 0.1447	
939.80000	 0.1437	
940.00000	 0.1428	
940.20000	 0.1424	
940.40000	 0.1410	
940.60000	 0.1411	
940.80000	 0.1422	
941.00000	 0.1433	
941.20000	 0.1436	
941.40000	 0.1448	
941.60000	 0.1453	
941.80000	 0.1465	
942.00000	 0.1480	
942.20000	 0.1485	
942.40000	 0.1495	
942.60000	 0.1509	
942.80000	 0.1527	
943.00000	 0.1552	
943.20000	 0.1573	
943.40000	 0.1588	
943.60000	 0.1604	
943.80000	 0.1617	
944.00000	 0.1636	
944.20000	 0.1645	
944.40000	 0.1660	
944.60000	 0.1677	
944.80000	 0.1700	
945.00000	 0.1717	
945.20000	 0.1730	
945.40000	 0.1753	
945.60000	 0.1773	
945.80000	 0.1793	
946.00000	 0.1817	
946.20000	 0.1836	
946.40000	 0.1862	
946.60000	 0.1878	
946.80000	 0.1894	
947.00000	 0.1909	
947.20000	 0.1921	
947.40000	 0.1933	
947.60000	 0.1944	
947.80000	 0.1950	
948.00000	 0.1953	
948.20000	 0.1961	
948.40000	 0.1958	
948.60000	 0.1961	
948.80000	 0.1952	
949.00000	 0.1950	
949.20000	 0.1947	
949.40000	 0.1936	
949.60000	 0.1933	
949.80000	 0.1924	
950.00000	 0.1920	
950.20000	 0.1909	
950.40000	 0.1901	
950.60000	 0.1891	
950.80000	 0.1878	
951.00000	 0.1869	
951.20000	 0.1848	
951.40000	 0.1830	
951.60000	 0.1801	
951.80000	 0.1778	
952.00000	 0.1762	
952.20000	 0.1744	
952.40000	 0.1717	
952.60000	 0.1694	
952.80000	 0.1675	
953.00000	 0.1657	
953.20000	 0.1643	
953.40000	 0.1627	
953.60000	 0.1611	
953.80000	 0.1591	
954.00000	 0.1579	
954.20000	 0.1564	
954.40000	 0.1558	
954.60000	 0.1543	
954.80000	 0.1526	
955.00000	 0.1515	
955.20000	 0.1498	
955.40000	 0.1485	
955.60000	 0.1476	
955.80000	 0.1469	
956.00000	 0.1469	
956.20000	 0.1459	
956.40000	 0.1448	
956.60000	 0.1437	
956.80000	 0.1427	
957.00000	 0.1419	
957.20000	 0.1414	
957.40000	 0.1419	
957.60000	 0.1434	
957.80000	 0.1440	
958.00000	 0.1447	
958.20000	 0.1454	
958.40000	 0.1462	
958.60000	 0.1476	
958.80000	 0.1485	
959.00000	 0.1497	
959.20000	 0.1506	
959.40000	 0.1526	
959.60000	 0.1547	
959.80000	 0.1575	
960.00000	 0.1588	
960.20000	 0.1605	
960.40000	 0.1616	
960.60000	 0.1631	
960.80000	 0.1648	
961.00000	 0.1656	
961.20000	 0.1677	
961.40000	 0.1694	
961.60000	 0.1712	
961.80000	 0.1730	
962.00000	 0.1749	
962.20000	 0.1767	
962.40000	 0.1788	
962.60000	 0.1814	
962.80000	 0.1828	
963.00000	 0.1852	
963.20000	 0.1869	
963.40000	 0.1886	
963.60000	 0.1903	
963.80000	 0.1910	
964.00000	 0.1924	
964.20000	 0.1935	
964.40000	 0.1942	
964.60000	 0.1945	
964.80000	 0.1952	
965.00000	 0.1952	
965.20000	 0.1950	
965.40000	 0.1953	
965.60000	 0.1945	
965.80000	 0.1941	
966.00000	 0.1933	
966.20000	 0.1927	
966.40000	 0.1923	
966.60000	 0.1915	
966.80000	 0.1906	
967.00000	 0.1900	
967.20000	 0.1889	
967.40000	 0.1881	
967.60000	 0.1868	
967.80000	 0.1855	
968.00000	 0.1834	
968.20000	 0.1810	
968.40000	 0.1787	
968.60000	 0.1772	
968.80000	 0.1752	
969.00000	 0.1724	
969.20000	 0.1703	
969.40000	 0.1682	
969.60000	 0.1665	
969.80000	 0.1649	
970.00000	 0.1634	
970.20000	 0.1617	
970.40000	 0.1601	
970.60000	 0.1587	
970.80000	 0.1570	
971.00000	 0.1566	
971.20000	 0.1550	
971.40000	 0.1530	
971.60000	 0.1521	
971.80000	 0.1506	
972.00000	 0.1495	
972.20000	 0.1482	
972.40000	 0.1474	
972.60000	 0.1471	
972.80000	 0.1465	
973.00000	 0.1453	
973.20000	 0.1445	
973.40000	 0.1437	
973.60000	 0.1425	
973.80000	 0.1424	
974.00000	 0.1425	
974.20000	 0.1436	
974.40000	 0.1445	
974.60000	 0.1454	
974.80000	 0.1460	
975.00000	 0.1465	
975.20000	 0.1477	
975.40000	 0.1486	
975.60000	 0.1497	
975.80000	 0.1506	
976.00000	 0.1524	
976.20000	 0.1546	
976.40000	 0.1570	
976.60000	 0.1584	
976.80000	 0.1595	
977.00000	 0.1610	
977.20000	 0.1627	
977.40000	 0.1640	
977.60000	 0.1649	
977.80000	 0.1666	
978.00000	 0.1689	
978.20000	 0.1709	
978.40000	 0.1723	
978.60000	 0.1740	
978.80000	 0.1758	
979.00000	 0.1778	
979.20000	 0.1799	
979.40000	 0.1816	
979.60000	 0.1840	
979.80000	 0.1859	
980.00000	 0.1877	
980.20000	 0.1892	
980.40000	 0.1906	
980.60000	 0.1918	
980.80000	 0.1930	
981.00000	 0.1935	
981.20000	 0.1939	
981.40000	 0.1945	
981.60000	 0.1950	
981.80000	 0.1945	
982.00000	 0.1949	
982.20000	 0.1942	
982.40000	 0.1939	
982.60000	 0.1929	
982.80000	 0.1921	
983.00000	 0.1918	
983.20000	 0.1912	
983.40000	 0.1906	
983.60000	 0.1895	
983.80000	 0.1886	
984.00000	 0.1877	
984.20000	 0.1868	
984.40000	 0.1851	
984.60000	 0.1830	
984.80000	 0.1808	
985.00000	 0.1782	
985.20000	 0.1767	
985.40000	 0.1749	
985.60000	 0.1723	
985.80000	 0.1698	
986.00000	 0.1680	
986.20000	 0.1662	
986.40000	 0.1651	
986.60000	 0.1630	
986.80000	 0.1614	
987.00000	 0.1602	
987.20000	 0.1582	
987.40000	 0.1569	
987.60000	 0.1564	
987.80000	 0.1552	
988.00000	 0.1537	
988.20000	 0.1521	
988.40000	 0.1511	
988.60000	 0.1495	
988.80000	 0.1483	
989.00000	 0.1477	
989.20000	 0.1469	
989.40000	 0.1468	
989.60000	 0.1454	
989.80000	 0.1443	
990.00000	 0.1437	
990.20000	 0.1425	
990.40000	 0.1414	
990.60000	 0.1416	
990.80000	 0.1427	
991.00000	 0.1436	
991.20000	 0.1440	
991.40000	 0.1450	
991.60000	 0.1454	
991.80000	 0.1463	
992.00000	 0.1477	
992.20000	 0.1486	
992.40000	 0.1498	
992.60000	 0.1515	
992.80000	 0.1527	
993.00000	 0.1552	
993.20000	 0.1569	
993.40000	 0.1587	
993.60000	 0.1601	
993.80000	 0.1613	
994.00000	 0.1628	
994.20000	 0.1639	
994.40000	 0.1653	
994.60000	 0.1674	
994.80000	 0.1692	
995.00000	 0.1712	
995.20000	 0.1727	
995.40000	 0.1750	
995.60000	 0.1762	
995.80000	 0.1784	
996.00000	 0.1805	
996.20000	 0.1823	
996.40000	 0.1843	
996.60000	 0.1863	
996.80000	 0.1878	
997.00000	 0.1889	
997.20000	 0.1895	
997.40000	 0.1912	
997.60000	 0.1921	
997.80000	 0.1926	
998.00000	 0.1929	
998.20000	 0.1929	
998.40000	 0.1929	
998.60000	 0.1933	
998.80000	 0.1924	
999.00000	 0.1921	
999.20000	 0.1920	
999.40000	 0.1909	
999.60000	 0.1906	
999.80000	 0.1900	
1000.00000	 0.1891	
1000.20000	 0.1886	
1000.40000	 0.1874	
1000.60000	 0.1865	
1000.80000	 0.1863	
1001.00000	 0.1848	
1001.20000	 0.1830	
1001.40000	 0.1813	
1001.60000	 0.1784	
1001.80000	 0.1762	
1002.00000	 0.1750	
1002.20000	 0.1727	
1002.40000	 0.1698	
1002.60000	 0.1683	
1002.80000	 0.1668	
1003.00000	 0.1649	
1003.20000	 0.1634	
1003.40000	 0.1617	
1003.60000	 0.1604	
1003.80000	 0.1585	
1004.00000	 0.1570	
1004.20000	 0.1561	
1004.40000	 0.1547	
1004.60000	 0.1534	
1004.80000	 0.1523	
1005.00000	 0.1508	
1005.20000	 0.1494	
1005.40000	 0.1483	
1005.60000	 0.1477	
1005.80000	 0.1469	
1006.00000	 0.1468	
1006.20000	 0.1454	
1006.40000	 0.1447	
1006.60000	 0.1437	
1006.80000	 0.1431	
1007.00000	 0.1419	
1007.20000	 0.1419	
1007.40000	 0.1425	
1007.60000	 0.1436	
1007.80000	 0.1440	
1008.00000	 0.1448	
1008.20000	 0.1454	
1008.40000	 0.1463	
1008.60000	 0.1479	
1008.80000	 0.1485	
1009.00000	 0.1494	
1009.20000	 0.1508	
1009.40000	 0.1524	
1009.60000	 0.1541	
1009.80000	 0.1566	
1010.00000	 0.1582	
1010.20000	 0.1591	
1010.40000	 0.1604	
1010.60000	 0.1617	
1010.80000	 0.1631	
1011.00000	 0.1643	
1011.20000	 0.1662	
1011.40000	 0.1682	
1011.60000	 0.1698	
1011.80000	 0.1714	
1012.00000	 0.1732	
1012.20000	 0.1749	
1012.40000	 0.1765	
1012.60000	 0.1787	
1012.80000	 0.1805	
1013.00000	 0.1828	
1013.20000	 0.1846	
1013.40000	 0.1860	
1013.60000	 0.1871	
1013.80000	 0.1884	
1014.00000	 0.1898	
1014.20000	 0.1903	
1014.40000	 0.1909	
1014.60000	 0.1918	
1014.80000	 0.1923	
1015.00000	 0.1921	
1015.20000	 0.1920	
1015.40000	 0.1918	
1015.60000	 0.1912	
1015.80000	 0.1909	
1016.00000	 0.1898	
1016.20000	 0.1894	
1016.40000	 0.1891	
1016.60000	 0.1883	
1016.80000	 0.1877	
1017.00000	 0.1868	
1017.20000	 0.1862	
1017.40000	 0.1852	
1017.60000	 0.1842	
1017.80000	 0.1823	
1018.00000	 0.1805	
1018.20000	 0.1776	
1018.40000	 0.1758	
1018.60000	 0.1746	
1018.80000	 0.1727	
1019.00000	 0.1698	
1019.20000	 0.1682	
1019.40000	 0.1662	
1019.60000	 0.1645	
1019.80000	 0.1631	
1020.00000	 0.1617	
1020.20000	 0.1602	
1020.40000	 0.1581	
1020.60000	 0.1570	
1020.80000	 0.1558	
1021.00000	 0.1547	
1021.20000	 0.1537	
1021.40000	 0.1521	
1021.60000	 0.1508	
1021.80000	 0.1495	
1022.00000	 0.1483	
1022.20000	 0.1474	
1022.40000	 0.1466	
1022.60000	 0.1463	
1022.80000	 0.1456	
1023.00000	 0.1443	
1023.20000	 0.1437	
1023.40000	 0.1428	
1023.60000	 0.1418	
1023.80000	 0.1416	
1024.00000	 0.1418	
1024.20000	 0.1424	
1024.40000	 0.1434	
1024.60000	 0.1439	
1024.80000	 0.1445	
1025.00000	 0.1456	
1025.20000	 0.1468	
1025.40000	 0.1477	
1025.60000	 0.1485	
1025.80000	 0.1498	
1026.00000	 0.1512	
1026.20000	 0.1527	
1026.40000	 0.1552	
1026.60000	 0.1564	
1026.80000	 0.1579	
1027.00000	 0.1593	
1027.20000	 0.1605	
1027.40000	 0.1617	
1027.60000	 0.1628	
1027.80000	 0.1649	
1028.00000	 0.1669	
1028.20000	 0.1686	
1028.40000	 0.1697	
1028.60000	 0.1715	
1028.80000	 0.1732	
1029.00000	 0.1752	
1029.20000	 0.1772	
1029.40000	 0.1788	
1029.60000	 0.1810	
1029.80000	 0.1828	
1030.00000	 0.1846	
1030.20000	 0.1862	
1030.40000	 0.1868	
1030.60000	 0.1883	
1030.80000	 0.1892	
1031.00000	 0.1895	
1031.20000	 0.1901	
1031.40000	 0.1904	
1031.60000	 0.1906	
1031.80000	 0.1903	
1032.00000	 0.1903	
1032.20000	 0.1895	
1032.40000	 0.1900	
1032.60000	 0.1883	
1032.80000	 0.1881	
1033.00000	 0.1874	
1033.20000	 0.1869	
1033.40000	 0.1863	
1033.60000	 0.1859	
1033.80000	 0.1848	
1034.00000	 0.1840	
1034.20000	 0.1826	
1034.40000	 0.1813	
1034.60000	 0.1793	
1034.80000	 0.1770	
1035.00000	 0.1743	
1035.20000	 0.1735	
1035.40000	 0.1717	
1035.60000	 0.1692	
1035.80000	 0.1671	
1036.00000	 0.1654	
1036.20000	 0.1639	
1036.40000	 0.1624	
1036.60000	 0.1608	
1036.80000	 0.1593	
1037.00000	 0.1573	
1037.20000	 0.1555	
1037.40000	 0.1541	
1037.60000	 0.1537	
1037.80000	 0.1524	
1038.00000	 0.1508	
1038.20000	 0.1498	
1038.40000	 0.1485	
1038.60000	 0.1469	
1038.80000	 0.1460	
1039.00000	 0.1453	
1039.20000	 0.1450	
1039.40000	 0.1439	
1039.60000	 0.1433	
1039.80000	 0.1422	
1040.00000	 0.1418	
1040.20000	 0.1405	
1040.40000	 0.1396	
1040.60000	 0.1401	
1040.80000	 0.1410	
1041.00000	 0.1418	
1041.20000	 0.1422	
1041.40000	 0.1428	
1041.60000	 0.1437	
1041.80000	 0.1447	
1042.00000	 0.1459	
1042.20000	 0.1466	
1042.40000	 0.1479	
1042.60000	 0.1491	
1042.80000	 0.1508	
1043.00000	 0.1534	
1043.20000	 0.1546	
1043.40000	 0.1559	
1043.60000	 0.1570	
1043.80000	 0.1585	
1044.00000	 0.1602	
1044.20000	 0.1610	
1044.40000	 0.1625	
1044.60000	 0.1639	
1044.80000	 0.1657	
1045.00000	 0.1675	
1045.20000	 0.1691	
1045.40000	 0.1711	
1045.60000	 0.1727	
1045.80000	 0.1744	
1046.00000	 0.1767	
1046.20000	 0.1787	
1046.40000	 0.1804	
1046.60000	 0.1822	
1046.80000	 0.1839	
1047.00000	 0.1846	
1047.20000	 0.1859	
1047.40000	 0.1869	
1047.60000	 0.1872	
1047.80000	 0.1874	
1048.00000	 0.1881	
1048.20000	 0.1886	
1048.40000	 0.1881	
1048.60000	 0.1886	
1048.80000	 0.1878	
1049.00000	 0.1874	
1049.20000	 0.1871	
1049.40000	 0.1865	
1049.60000	 0.1859	
1049.80000	 0.1852	
1050.00000	 0.1849	
1050.20000	 0.1840	
1050.40000	 0.1830	
1050.60000	 0.1823	
1050.80000	 0.1816	
1051.00000	 0.1801	
1051.20000	 0.1781	
1051.40000	 0.1765	
1051.60000	 0.1741	
1051.80000	 0.1723	
1052.00000	 0.1707	
1052.20000	 0.1689	
1052.40000	 0.1660	
1052.60000	 0.1649	
1052.80000	 0.1633	
1053.00000	 0.1617	
1053.20000	 0.1601	
1053.40000	 0.1588	
1053.60000	 0.1572	
1053.80000	 0.1555	
1054.00000	 0.1544	
1054.20000	 0.1534	
1054.40000	 0.1524	
1054.60000	 0.1509	
1054.80000	 0.1501	
1055.00000	 0.1485	
1055.20000	 0.1469	
1055.40000	 0.1459	
1055.60000	 0.1454	
1055.80000	 0.1445	
1056.00000	 0.1442	
1056.20000	 0.1434	
1056.40000	 0.1424	
1056.60000	 0.1416	
1056.80000	 0.1411	
1057.00000	 0.1396	
1057.20000	 0.1399	
1057.40000	 0.1402	
1057.60000	 0.1418	
1057.80000	 0.1419	
1058.00000	 0.1425	
1058.20000	 0.1433	
1058.40000	 0.1439	
1058.60000	 0.1456	
1058.80000	 0.1460	
1059.00000	 0.1469	
1059.20000	 0.1483	
1059.40000	 0.1497	
1059.60000	 0.1515	
1059.80000	 0.1534	
1060.00000	 0.1547	
1060.20000	 0.1559	
1060.40000	 0.1573	
1060.60000	 0.1590	
1060.80000	 0.1598	
1061.00000	 0.1610	
1061.20000	 0.1628	
1061.40000	 0.1646	
1061.60000	 0.1660	
1061.80000	 0.1677	
1062.00000	 0.1695	
1062.20000	 0.1711	
1062.40000	 0.1732	
1062.60000	 0.1752	
1062.80000	 0.1765	
1063.00000	 0.1784	
1063.20000	 0.1807	
1063.40000	 0.1820	
1063.60000	 0.1831	
1063.80000	 0.1843	
1064.00000	 0.1851	
1064.20000	 0.1857	
1064.40000	 0.1859	
1064.60000	 0.1863	
1064.80000	 0.1868	
1065.00000	 0.1869	
1065.20000	 0.1868	
1065.40000	 0.1866	
1065.60000	 0.1860	
1065.80000	 0.1857	
1066.00000	 0.1849	
1066.20000	 0.1849	
1066.40000	 0.1842	
1066.60000	 0.1839	
1066.80000	 0.1828	
1067.00000	 0.1819	
1067.20000	 0.1813	
1067.40000	 0.1804	
1067.60000	 0.1793	
1067.80000	 0.1776	
1068.00000	 0.1758	
1068.20000	 0.1733	
1068.40000	 0.1715	
1068.60000	 0.1701	
1068.80000	 0.1683	
1069.00000	 0.1659	
1069.20000	 0.1645	
1069.40000	 0.1628	
1069.60000	 0.1608	
1069.80000	 0.1596	
1070.00000	 0.1581	
1070.20000	 0.1567	
1070.40000	 0.1549	
1070.60000	 0.1538	
1070.80000	 0.1526	
1071.00000	 0.1518	
1071.20000	 0.1506	
1071.40000	 0.1491	
1071.60000	 0.1482	
1071.80000	 0.1466	
1072.00000	 0.1454	
1072.20000	 0.1445	
1072.40000	 0.1437	
1072.60000	 0.1434	
1072.80000	 0.1425	
1073.00000	 0.1418	
1073.20000	 0.1407	
1073.40000	 0.1398	
1073.60000	 0.1392	
1073.80000	 0.1392	
1074.00000	 0.1392	
1074.20000	 0.1402	
1074.40000	 0.1411	
1074.60000	 0.1418	
1074.80000	 0.1422	
1075.00000	 0.1428	
1075.20000	 0.1440	
1075.40000	 0.1450	
1075.60000	 0.1459	
1075.80000	 0.1468	
1076.00000	 0.1480	
1076.20000	 0.1498	
1076.40000	 0.1521	
1076.60000	 0.1534	
1076.80000	 0.1549	
1077.00000	 0.1558	
1077.20000	 0.1572	
1077.40000	 0.1582	
1077.60000	 0.1591	
1077.80000	 0.1610	
1078.00000	 0.1625	
1078.20000	 0.1640	
1078.40000	 0.1659	
1078.60000	 0.1672	
1078.80000	 0.1688	
1079.00000	 0.1707	
1079.20000	 0.1730	
1079.40000	 0.1744	
1079.60000	 0.1764	
1079.80000	 0.1784	
1080.00000	 0.1797	
1080.20000	 0.1814	
1080.40000	 0.1819	
1080.60000	 0.1831	
1080.80000	 0.1842	
1081.00000	 0.1846	
1081.20000	 0.1846	
1081.40000	 0.1852	
1081.60000	 0.1852	
1081.80000	 0.1851	
1082.00000	 0.1851	
1082.20000	 0.1843	
1082.40000	 0.1845	
1082.60000	 0.1836	
1082.80000	 0.1831	
1083.00000	 0.1831	
1083.20000	 0.1825	
1083.40000	 0.1817	
1083.60000	 0.1808	
1083.80000	 0.1802	
1084.00000	 0.1793	
1084.20000	 0.1782	
1084.40000	 0.1765	
1084.60000	 0.1753	
1084.80000	 0.1730	
1085.00000	 0.1709	
1085.20000	 0.1695	
1085.40000	 0.1682	
1085.60000	 0.1656	
1085.80000	 0.1640	
1086.00000	 0.1625	
1086.20000	 0.1610	
1086.40000	 0.1593	
1086.60000	 0.1581	
1086.80000	 0.1567	
1087.00000	 0.1552	
1087.20000	 0.1537	
1087.40000	 0.1526	
1087.60000	 0.1520	
1087.80000	 0.1503	
1088.00000	 0.1491	
1088.20000	 0.1480	
1088.40000	 0.1465	
1088.60000	 0.1453	
1088.80000	 0.1442	
1089.00000	 0.1434	
1089.20000	 0.1434	
1089.40000	 0.1428	
1089.60000	 0.1416	
1089.80000	 0.1410	
1090.00000	 0.1401	
1090.20000	 0.1392	
1090.40000	 0.1389	
1090.60000	 0.1390	
1090.80000	 0.1399	
1091.00000	 0.1410	
1091.20000	 0.1413	
1091.40000	 0.1419	
1091.60000	 0.1424	
1091.80000	 0.1434	
1092.00000	 0.1443	
1092.20000	 0.1453	
1092.40000	 0.1462	
1092.60000	 0.1476	
1092.80000	 0.1488	
1093.00000	 0.1512	
1093.20000	 0.1526	
1093.40000	 0.1540	
1093.60000	 0.1550	
1093.80000	 0.1561	
1094.00000	 0.1575	
1094.20000	 0.1582	
1094.40000	 0.1596	
1094.60000	 0.1614	
1094.80000	 0.1631	
1095.00000	 0.1645	
1095.20000	 0.1659	
1095.40000	 0.1675	
1095.60000	 0.1694	
1095.80000	 0.1714	
1096.00000	 0.1730	
1096.20000	 0.1750	
1096.40000	 0.1765	
1096.60000	 0.1781	
1096.80000	 0.1796	
1097.00000	 0.1807	
1097.20000	 0.1816	
1097.40000	 0.1830	
1097.60000	 0.1831	
1097.80000	 0.1839	
1098.00000	 0.1842	
1098.20000	 0.1843	
1098.40000	 0.1843	
1098.60000	 0.1846	
1098.80000	 0.1840	
1099.00000	 0.1837	
1099.20000	 0.1828	
1099.40000	 0.1823	
1099.60000	 0.1819	
1099.80000	 0.1814	
1100.00000	 0.1807	
1100.20000	 0.1799	
1100.40000	 0.1793	
1100.60000	 0.1787	
1100.80000	 0.1776	
1101.00000	 0.1761	
1101.20000	 0.1743	
1101.40000	 0.1729	
1101.60000	 0.1700	
1101.80000	 0.1691	
1102.00000	 0.1677	
1102.20000	 0.1656	
1102.40000	 0.1630	
1102.60000	 0.1614	
1102.80000	 0.1598	
1103.00000	 0.1584	
1103.20000	 0.1570	
1103.40000	 0.1559	
1103.60000	 0.1546	
1103.80000	 0.1526	
1104.00000	 0.1517	
1104.20000	 0.1508	
1104.40000	 0.1498	
1104.60000	 0.1483	
1104.80000	 0.1471	
1105.00000	 0.1459	
1105.20000	 0.1447	
1105.40000	 0.1433	
1105.60000	 0.1425	
1105.80000	 0.1421	
1106.00000	 0.1421	
1106.20000	 0.1411	
1106.40000	 0.1401	
1106.60000	 0.1396	
1106.80000	 0.1390	
1107.00000	 0.1381	
1107.20000	 0.1384	
1107.40000	 0.1390	
1107.60000	 0.1398	
1107.80000	 0.1402	
1108.00000	 0.1411	
1108.20000	 0.1416	
1108.40000	 0.1422	
1108.60000	 0.1437	
1108.80000	 0.1442	
1109.00000	 0.1453	
1109.20000	 0.1465	
1109.40000	 0.1480	
1109.60000	 0.1500	
1109.80000	 0.1517	
1110.00000	 0.1527	
1110.20000	 0.1537	
1110.40000	 0.1550	
1110.60000	 0.1566	
1110.80000	 0.1575	
1111.00000	 0.1587	
1111.20000	 0.1604	
1111.40000	 0.1619	
1111.60000	 0.1634	
1111.80000	 0.1651	
1112.00000	 0.1668	
1112.20000	 0.1682	
1112.40000	 0.1700	
1112.60000	 0.1718	
1112.80000	 0.1736	
1113.00000	 0.1755	
1113.20000	 0.1775	
1113.40000	 0.1788	
1113.60000	 0.1797	
1113.80000	 0.1808	
1114.00000	 0.1823	
1114.20000	 0.1826	
1114.40000	 0.1834	
1114.60000	 0.1837	
1114.80000	 0.1839	
1115.00000	 0.1842	
1115.20000	 0.1842	
1115.40000	 0.1836	
1115.60000	 0.1834	
1115.80000	 0.1830	
1116.00000	 0.1819	
1116.20000	 0.1817	
1116.40000	 0.1813	
1116.60000	 0.1805	
1116.80000	 0.1799	
1117.00000	 0.1793	
1117.20000	 0.1784	
1117.40000	 0.1775	
1117.60000	 0.1764	
1117.80000	 0.1749	
1118.00000	 0.1733	
1118.20000	 0.1709	
1118.40000	 0.1694	
1118.60000	 0.1683	
1118.80000	 0.1662	
1119.00000	 0.1639	
1119.20000	 0.1625	
1119.40000	 0.1608	
1119.60000	 0.1593	
1119.80000	 0.1582	
1120.00000	 0.1566	
1120.20000	 0.1553	
1120.40000	 0.1534	
1120.60000	 0.1523	
1120.80000	 0.1511	
1121.00000	 0.1506	
1121.20000	 0.1491	
1121.40000	 0.1477	
1121.60000	 0.1466	
1121.80000	 0.1456	
1122.00000	 0.1440	
1122.20000	 0.1433	
1122.40000	 0.1427	
1122.60000	 0.1424	
1122.80000	 0.1418	
1123.00000	 0.1405	
1123.20000	 0.1401	
1123.40000	 0.1395	
1123.60000	 0.1384	
1123.80000	 0.1384	
1124.00000	 0.1384	
1124.20000	 0.1398	
1124.40000	 0.1404	
1124.60000	 0.1407	
1124.80000	 0.1416	
1125.00000	 0.1422	
1125.20000	 0.1434	
1125.40000	 0.1440	
1125.60000	 0.1456	
1125.80000	 0.1466	
1126.00000	 0.1479	
1126.20000	 0.1494	
1126.40000	 0.1512	
1126.60000	 0.1524	
1126.80000	 0.1537	
1127.00000	 0.1550	
1127.20000	 0.1562	
1127.40000	 0.1572	
1127.60000	 0.1581	
1127.80000	 0.1590	
1128.00000	 0.1613	
1128.20000	 0.1628	
1128.40000	 0.1643	
1128.60000	 0.1659	
1128.80000	 0.1678	
1129.00000	 0.1695	
1129.20000	 0.1711	
1129.40000	 0.1730	
1129.60000	 0.1744	
1129.80000	 0.1765	
1130.00000	 0.1776	
1130.20000	 0.1791	
1130.40000	 0.1801	
1130.60000	 0.1810	
1130.80000	 0.1820	
1131.00000	 0.1828	
1131.20000	 0.1828	
1131.40000	 0.1834	
1131.60000	 0.1830	
1131.80000	 0.1830	
1132.00000	 0.1831	
1132.20000	 0.1826	
1132.40000	 0.1822	
1132.60000	 0.1817	
1132.80000	 0.1814	
1133.00000	 0.1807	
1133.20000	 0.1804	
1133.40000	 0.1797	
1133.60000	 0.1794	
1133.80000	 0.1785	
1134.00000	 0.1776	
1134.20000	 0.1767	
1134.40000	 0.1750	
1134.60000	 0.1735	
1134.80000	 0.1712	
1135.00000	 0.1694	
1135.20000	 0.1686	
1135.40000	 0.1669	
1135.60000	 0.1643	
1135.80000	 0.1631	
1136.00000	 0.1616	
1136.20000	 0.1601	
1136.40000	 0.1585	
1136.60000	 0.1570	
1136.80000	 0.1559	
1137.00000	 0.1544	
1137.20000	 0.1530	
1137.40000	 0.1520	
1137.60000	 0.1512	
1137.80000	 0.1497	
1138.00000	 0.1483	
1138.20000	 0.1479	
1138.40000	 0.1459	
1138.60000	 0.1447	
1138.80000	 0.1439	
1139.00000	 0.1433	
1139.20000	 0.1431	
1139.40000	 0.1422	
1139.60000	 0.1414	
1139.80000	 0.1405	
1140.00000	 0.1399	
1140.20000	 0.1390	
1140.40000	 0.1389	
1140.60000	 0.1393	
1140.80000	 0.1398	
1141.00000	 0.1410	
1141.20000	 0.1413	
1141.40000	 0.1418	
1141.60000	 0.1422	
1141.80000	 0.1437	
1142.00000	 0.1447	
1142.20000	 0.1454	
1142.40000	 0.1462	
1142.60000	 0.1477	
1142.80000	 0.1489	
1143.00000	 0.1508	
1143.20000	 0.1520	
1143.40000	 0.1537	
1143.60000	 0.1544	
1143.80000	 0.1558	
1144.00000	 0.1572	
1144.20000	 0.1579	
1144.40000	 0.1587	
1144.60000	 0.1607	
1144.80000	 0.1628	
1145.00000	 0.1637	
1145.20000	 0.1653	
1145.40000	 0.1668	
1145.60000	 0.1686	
1145.80000	 0.1703	
1146.00000	 0.1720	
1146.20000	 0.1741	
1146.40000	 0.1758	
1146.60000	 0.1772	
1146.80000	 0.1784	
1147.00000	 0.1788	
1147.20000	 0.1802	
1147.40000	 0.1816	
1147.60000	 0.1817	
1147.80000	 0.1820	
1148.00000	 0.1826	
1148.20000	 0.1826	
1148.40000	 0.1826	
1148.60000	 0.1830	
1148.80000	 0.1823	
1149.00000	 0.1820	
1149.20000	 0.1813	
1149.40000	 0.1813	
1149.60000	 0.1805	
1149.80000	 0.1802	
1150.00000	 0.1796	
1150.20000	 0.1791	
1150.40000	 0.1779	
1150.60000	 0.1773	
1150.80000	 0.1761	
1151.00000	 0.1752	
1151.20000	 0.1733	
1151.40000	 0.1717	
1151.60000	 0.1694	
1151.80000	 0.1683	
1152.00000	 0.1669	
1152.20000	 0.1649	
1152.40000	 0.1631	
1152.60000	 0.1617	
1152.80000	 0.1607	
1153.00000	 0.1590	
1153.20000	 0.1579	
1153.40000	 0.1566	
1153.60000	 0.1553	
1153.80000	 0.1538	
1154.00000	 0.1524	
1154.20000	 0.1518	
1154.40000	 0.1506	
1154.60000	 0.1498	
1154.80000	 0.1482	
1155.00000	 0.1471	
1155.20000	 0.1456	
1155.40000	 0.1442	
1155.60000	 0.1437	
1155.80000	 0.1433	
1156.00000	 0.1427	
1156.20000	 0.1413	
1156.40000	 0.1411	
1156.60000	 0.1402	
1156.80000	 0.1395	
1157.00000	 0.1385	
1157.20000	 0.1389	
1157.40000	 0.1399	
1157.60000	 0.1407	
1157.80000	 0.1413	
1158.00000	 0.1419	
1158.20000	 0.1424	
1158.40000	 0.1434	
1158.60000	 0.1445	
1158.80000	 0.1454	
1159.00000	 0.1460	
1159.20000	 0.1468	
1159.40000	 0.1483	
1159.60000	 0.1503	
1159.80000	 0.1520	
1160.00000	 0.1529	
1160.20000	 0.1538	
1160.40000	 0.1552	
1160.60000	 0.1564	
1160.80000	 0.1572	
1161.00000	 0.1584	
1161.20000	 0.1598	
1161.40000	 0.1616	
1161.60000	 0.1628	
1161.80000	 0.1643	
1162.00000	 0.1659	
1162.20000	 0.1674	
1162.40000	 0.1691	
1162.60000	 0.1711	
1162.80000	 0.1724	
1163.00000	 0.1741	
1163.20000	 0.1756	
1163.40000	 0.1765	
1163.60000	 0.1778	
1163.80000	 0.1787	
1164.00000	 0.1794	
1164.20000	 0.1799	
1164.40000	 0.1807	
1164.60000	 0.1807	
1164.80000	 0.1810	
1165.00000	 0.1810	
1165.20000	 0.1813	
1165.40000	 0.1802	
1165.60000	 0.1805	
1165.80000	 0.1801	
1166.00000	 0.1791	
1166.20000	 0.1791	
1166.40000	 0.1787	
1166.60000	 0.1781	
1166.80000	 0.1773	
1167.00000	 0.1765	
1167.20000	 0.1759	
1167.40000	 0.1750	
1167.60000	 0.1743	
1167.80000	 0.1724	
1168.00000	 0.1711	
1168.20000	 0.1689	
1168.40000	 0.1675	
1168.60000	 0.1665	
1168.80000	 0.1646	
1169.00000	 0.1624	
1169.20000	 0.1610	
1169.40000	 0.1593	
1169.60000	 0.1582	
1169.80000	 0.1567	
1170.00000	 0.1553	
1170.20000	 0.1544	
1170.40000	 0.1527	
1170.60000	 0.1515	
1170.80000	 0.1508	
1171.00000	 0.1497	
1171.20000	 0.1483	
1171.40000	 0.1471	
1171.60000	 0.1457	
1171.80000	 0.1442	
1172.00000	 0.1431	
1172.20000	 0.1424	
1172.40000	 0.1418	
1172.60000	 0.1416	
1172.80000	 0.1407	
1173.00000	 0.1398	
1173.20000	 0.1393	
1173.40000	 0.1389	
1173.60000	 0.1378	
1173.80000	 0.1379	
1174.00000	 0.1379	
1174.20000	 0.1392	
1174.40000	 0.1395	
1174.60000	 0.1401	
1174.80000	 0.1404	
1175.00000	 0.1416	
1175.20000	 0.1422	
1175.40000	 0.1431	
1175.60000	 0.1439	
1175.80000	 0.1453	
1176.00000	 0.1466	
1176.20000	 0.1480	
1176.40000	 0.1498	
1176.60000	 0.1509	
1176.80000	 0.1520	
1177.00000	 0.1527	
1177.20000	 0.1541	
1177.40000	 0.1550	
1177.60000	 0.1562	
1177.80000	 0.1576	
1178.00000	 0.1591	
1178.20000	 0.1607	
1178.40000	 0.1622	
1178.60000	 0.1637	
1178.80000	 0.1653	
1179.00000	 0.1669	
1179.20000	 0.1686	
1179.40000	 0.1701	
1179.60000	 0.1718	
1179.80000	 0.1733	
1180.00000	 0.1746	
1180.20000	 0.1759	
1180.40000	 0.1765	
1180.60000	 0.1776	
1180.80000	 0.1787	
1181.00000	 0.1787	
1181.20000	 0.1791	
1181.40000	 0.1796	
1181.60000	 0.1796	
1181.80000	 0.1794	
1182.00000	 0.1796	
1182.20000	 0.1791	
1182.40000	 0.1787	
1182.60000	 0.1778	
1182.80000	 0.1778	
1183.00000	 0.1767	
1183.20000	 0.1764	
1183.40000	 0.1759	
1183.60000	 0.1752	
1183.80000	 0.1740	
1184.00000	 0.1736	
1184.20000	 0.1727	
1184.40000	 0.1709	
1184.60000	 0.1697	
1184.80000	 0.1678	
1185.00000	 0.1660	
1185.20000	 0.1653	
1185.40000	 0.1636	
1185.60000	 0.1613	
1185.80000	 0.1596	
1186.00000	 0.1584	
1186.20000	 0.1570	
1186.40000	 0.1555	
1186.60000	 0.1546	
1186.80000	 0.1534	
1187.00000	 0.1518	
1187.20000	 0.1508	
1187.40000	 0.1497	
1187.60000	 0.1491	
1187.80000	 0.1480	
1188.00000	 0.1465	
1188.20000	 0.1457	
1188.40000	 0.1439	
1188.60000	 0.1428	
1188.80000	 0.1424	
1189.00000	 0.1416	
1189.20000	 0.1411	
1189.40000	 0.1405	
1189.60000	 0.1401	
1189.80000	 0.1392	
1190.00000	 0.1384	
1190.20000	 0.1375	
1190.40000	 0.1376	
1190.60000	 0.1379	
1190.80000	 0.1384	
1191.00000	 0.1393	
1191.20000	 0.1398	
1191.40000	 0.1404	
1191.60000	 0.1411	
1191.80000	 0.1419	
1192.00000	 0.1425	
1192.20000	 0.1436	
1192.40000	 0.1443	
1192.60000	 0.1459	
1192.80000	 0.1474	
1193.00000	 0.1488	
1193.20000	 0.1501	
1193.40000	 0.1511	
1193.60000	 0.1520	
1193.80000	 0.1537	
1194.00000	 0.1544	
1194.20000	 0.1550	
1194.40000	 0.1561	
1194.60000	 0.1579	
1194.80000	 0.1595	
1195.00000	 0.1607	
1195.20000	 0.1624	
1195.40000	 0.1640	
1195.60000	 0.1654	
1195.80000	 0.1671	
1196.00000	 0.1686	
1196.20000	 0.1703	
1196.40000	 0.1717	
1196.60000	 0.1733	
1196.80000	 0.1746	
1197.00000	 0.1750	
1197.20000	 0.1759	
1197.40000	 0.1772	
1197.60000	 0.1772	
1197.80000	 0.1776	
1198.00000	 0.1778	
1198.20000	 0.1781	
1198.40000	 0.1779	
1198.60000	 0.1778	
1198.80000	 0.1775	
1199.00000	 0.1772	
1199.20000	 0.1761	
1199.40000	 0.1759	
1199.60000	 0.1753	
1199.80000	 0.1752	
1200.00000	 0.1746	
1200.20000	 0.1740	
1200.40000	 0.1730	
1200.60000	 0.1724	
1200.80000	 0.1715	
1201.00000	 0.1701	
1201.20000	 0.1688	
1201.40000	 0.1669	
1201.60000	 0.1653	
1201.80000	 0.1639	
1202.00000	 0.1627	
1202.20000	 0.1604	
1202.40000	 0.1588	
1202.60000	 0.1579	
1202.80000	 0.1562	
1203.00000	 0.1549	
1203.20000	 0.1541	
1203.40000	 0.1529	
1203.60000	 0.1515	
1203.80000	 0.1501	
1204.00000	 0.1489	
1204.20000	 0.1483	
1204.40000	 0.1469	
1204.60000	 0.1459	
1204.80000	 0.1450	
1205.00000	 0.1434	
1205.20000	 0.1424	
1205.40000	 0.1413	
1205.60000	 0.1407	
1205.80000	 0.1404	
1206.00000	 0.1399	
1206.20000	 0.1392	
1206.40000	 0.1389	
1206.60000	 0.1378	
1206.80000	 0.1364	
1207.00000	 0.1363	
1207.20000	 0.1364	
1207.40000	 0.1372	
1207.60000	 0.1385	
1207.80000	 0.1385	
1208.00000	 0.1390	
1208.20000	 0.1396	
1208.40000	 0.1404	
1208.60000	 0.1416	
1208.80000	 0.1421	
1209.00000	 0.1428	
1209.20000	 0.1442	
1209.40000	 0.1453	
1209.60000	 0.1471	
1209.80000	 0.1482	
1210.00000	 0.1491	
1210.20000	 0.1501	
1210.40000	 0.1515	
1210.60000	 0.1524	
1210.80000	 0.1530	
1211.00000	 0.1543	
1211.20000	 0.1558	
1211.40000	 0.1572	
1211.60000	 0.1585	
1211.80000	 0.1598	
1212.00000	 0.1614	
1212.20000	 0.1627	
1212.40000	 0.1645	
1212.60000	 0.1662	
1212.80000	 0.1675	
1213.00000	 0.1691	
1213.20000	 0.1706	
1213.40000	 0.1718	
1213.60000	 0.1729	
1213.80000	 0.1736	
1214.00000	 0.1744	
1214.20000	 0.1750	
1214.40000	 0.1755	
1214.60000	 0.1758	
1214.80000	 0.1759	
1215.00000	 0.1761	
1215.20000	 0.1761	
1215.40000	 0.1753	
1215.60000	 0.1753	
1215.80000	 0.1744	
1216.00000	 0.1740	
1216.20000	 0.1736	
1216.40000	 0.1733	
1216.60000	 0.1730	
1216.80000	 0.1720	
1217.00000	 0.1712	
1217.20000	 0.1707	
1217.40000	 0.1698	
1217.60000	 0.1691	
1217.80000	 0.1677	
1218.00000	 0.1657	
1218.20000	 0.1640	
1218.40000	 0.1633	
1218.60000	 0.1622	
1218.80000	 0.1604	
1219.00000	 0.1585	
1219.20000	 0.1573	
1219.40000	 0.1564	
1219.60000	 0.1549	
1219.80000	 0.1538	
1220.00000	 0.1527	
1220.20000	 0.1517	
1220.40000	 0.1503	
1220.60000	 0.1494	
1220.80000	 0.1491	
1221.00000	 0.1483	
1221.20000	 0.1463	
1221.40000	 0.1459	
1221.60000	 0.1453	
1221.80000	 0.1440	
1222.00000	 0.1431	
1222.20000	 0.1431	
1222.40000	 0.1431	
1222.60000	 0.1428	
1222.80000	 0.1422	
1223.00000	 0.1424	
1223.20000	 0.1421	
1223.40000	 0.1421	
1223.60000	 0.1416	
1223.80000	 0.1424	
1224.00000	 0.1436	
1224.20000	 0.1448	
1224.40000	 0.1459	
1224.60000	 0.1471	
1224.80000	 0.1485	
1225.00000	 0.1501	
1225.20000	 0.1520	
1225.40000	 0.1530	
1225.60000	 0.1547	
1225.80000	 0.1566	
1226.00000	 0.1584	
1226.20000	 0.1607	
1226.40000	 0.1627	
1226.60000	 0.1643	
1226.80000	 0.1659	
1227.00000	 0.1672	
1227.20000	 0.1694	
1227.40000	 0.1709	
1227.60000	 0.1721	
1227.80000	 0.1744	
1228.00000	 0.1770	
1228.20000	 0.1793	
1228.40000	 0.1810	
1228.60000	 0.1837	
1228.80000	 0.1863	
1229.00000	 0.1888	
1229.20000	 0.1918	
1229.40000	 0.1945	
1229.60000	 0.1974	
1229.80000	 0.1999	
1230.00000	 0.2025	
1230.20000	 0.2049	
1230.40000	 0.2068	
1230.60000	 0.2094	
1230.80000	 0.2118	
1231.00000	 0.2138	
1231.20000	 0.2155	
1231.40000	 0.2177	
1231.60000	 0.2194	
1231.80000	 0.2213	
1232.00000	 0.2232	
1232.20000	 0.2261	
1232.40000	 0.2284	
1232.60000	 0.2310	
1232.80000	 0.2347	
1233.00000	 0.2380	
1233.20000	 0.2432	
1233.40000	 0.2484	
1233.60000	 0.2548	
1233.80000	 0.2615	
1234.00000	 0.2692	
1234.20000	 0.2771	
1234.40000	 0.2852	
1234.60000	 0.2946	
1234.80000	 0.3032	
1235.00000	 0.3125	
1235.20000	 0.3230	
1235.40000	 0.3323	
1235.60000	 0.3406	
1235.80000	 0.3499	
1236.00000	 0.3578	
1236.20000	 0.3658	
1236.40000	 0.3726	
1236.60000	 0.3793	
1236.80000	 0.3848	
1237.00000	 0.3894	
