emka TECHNOLOGIES		
		
Generated by : 	IOX version 2.9.5.73 - Mar 18th, 2016	
File : 	c:\emka\iox_2_9_5_73\data\20180619-rata.mkt	
Date and time of first sample : 	Jun 19, 2018 - 2:08:13 PM.088	
		
Site-time	A1-I1-ECG (Smoothed)	
	V	
01:18:40.121	0.00943	0
01:18:40.121	0.008545	0
01:18:40.121	0.008087	0
01:18:40.121	0.008057	0
01:18:40.121	0.008026	0
01:18:40.122	0.008148	0.001157407408109
01:18:40.122	0.00827	0.001157407408109
01:18:40.122	0.008453	0.001157407408109
01:18:40.122	0.008667	0.001157407408109
01:18:40.122	0.008911	0.001157407408109
01:18:40.123	0.009003	0.00231481481483
01:18:40.123	0.009033	0.00231481481483
01:18:40.123	0.008698	0.00231481481483
01:18:40.123	0.008423	0.00231481481483
01:18:40.123	0.008026	0.00231481481483
01:18:40.124	0.007446	0.003472222222245
01:18:40.124	0.006958	0.003472222222245
01:18:40.124	0.006531	0.003472222222245
01:18:40.124	0.005951	0.003472222222245
01:18:40.124	0.005768	0.003472222222245
01:18:40.125	0.005707	0.00462962962966
01:18:40.125	0.005676	0.00462962962966
01:18:40.125	0.005798	0.00462962962966
01:18:40.125	0.006042	0.00462962962966
01:18:40.125	0.00592	0.00462962962966
01:18:40.126	0.006073	0.005787037037769
01:18:40.126	0.006012	0.005787037037769
01:18:40.126	0.005798	0.005787037037769
01:18:40.126	0.005554	0.005787037037769
01:18:40.126	0.005249	0.005787037037769
01:18:40.127	0.004761	0.006944444445184
01:18:40.127	0.004425	0.006944444445184
01:18:40.127	0.003876	0.006944444445184
01:18:40.127	0.003418	0.006944444445184
01:18:40.127	0.003204	0.006944444445184
01:18:40.128	0.00296	0.008101851851905
01:18:40.128	0.002655	0.008101851851905
01:18:40.128	0.002899	0.008101851851905
01:18:40.128	0.003174	0.008101851851905
01:18:40.128	0.00351	0.008101851851905
01:18:40.129	0.003998	0.00925925925932
01:18:40.129	0.004333	0.00925925925932
01:18:40.129	0.004486	0.00925925925932
01:18:40.129	0.004486	0.00925925925932
01:18:40.129	0.004089	0.00925925925932
01:18:40.130	0.003326	0.010416666666735
01:18:40.130	0.002563	0.010416666666735
01:18:40.130	0.001709	0.010416666666735
01:18:40.130	0.001221	0.010416666666735
01:18:40.130	0.000854	0.010416666666735
01:18:40.131	0.000641	0.011574074074844
01:18:40.131	0.000824	0.011574074074844
01:18:40.131	0.001129	0.011574074074844
01:18:40.131	0.001526	0.011574074074844
01:18:40.131	0.002167	0.011574074074844
01:18:40.132	0.002411	0.012731481481565
01:18:40.132	0.002075	0.012731481481565
01:18:40.132	0.001678	0.012731481481565
01:18:40.132	0.001129	0.012731481481565
01:18:40.132	0.000916	0.012731481481565
01:18:40.133	0.001404	0.01388888888898
01:18:40.133	0.002106	0.01388888888898
01:18:40.133	0.002655	0.01388888888898
01:18:40.133	0.00293	0.01388888888898
01:18:40.133	0.002808	0.01388888888898
01:18:40.134	0.002655	0.015046296296395
01:18:40.134	0.002563	0.015046296296395
01:18:40.134	0.002716	0.015046296296395
01:18:40.134	0.003143	0.015046296296395
01:18:40.134	0.003448	0.015046296296395
01:18:40.135	0.003448	0.016203703704504
01:18:40.135	0.004181	0.016203703704504
01:18:40.135	0.004791	0.016203703704504
01:18:40.135	0.005249	0.016203703704504
01:18:40.135	0.005554	0.016203703704504
01:18:40.136	0.005798	0.017361111111919
01:18:40.136	0.00528	0.017361111111919
01:18:40.136	0.004852	0.017361111111919
01:18:40.136	0.00415	0.017361111111919
01:18:40.136	0.003723	0.017361111111919
01:18:40.137	0.003448	0.01851851851864
01:18:40.137	0.003204	0.01851851851864
01:18:40.137	0.002899	0.01851851851864
01:18:40.137	0.002991	0.01851851851864
01:18:40.137	0.003174	0.01851851851864
01:18:40.138	0.003448	0.019675925926055
01:18:40.138	0.003723	0.019675925926055
01:18:40.138	0.003906	0.019675925926055
01:18:40.138	0.003998	0.019675925926055
01:18:40.138	0.004272	0.019675925926055
01:18:40.139	0.004852	0.02083333333347
01:18:40.139	0.005341	0.02083333333347
01:18:40.139	0.00589	0.02083333333347
01:18:40.139	0.00592	0.02083333333347
01:18:40.139	0.005524	0.02083333333347
01:18:40.140	0.00473	0.021990740741579
01:18:40.140	0.003998	0.021990740741579
01:18:40.140	0.003418	0.021990740741579
01:18:40.140	0.003204	0.021990740741579
01:18:40.140	0.00293	0.021990740741579
01:18:40.141	0.002594	0.023148148147606
01:18:40.141	0.002563	0.023148148147606
01:18:40.141	0.002594	0.023148148147606
01:18:40.141	0.002747	0.023148148147606
01:18:40.141	0.003113	0.023148148147606
01:18:40.142	0.003601	0.024305555555715
01:18:40.142	0.003845	0.024305555555715
01:18:40.142	0.003815	0.024305555555715
01:18:40.142	0.003784	0.024305555555715
01:18:40.142	0.003387	0.024305555555715
01:18:40.143	0.002625	0.02546296296313
01:18:40.143	0.001862	0.02546296296313
01:18:40.143	0.001007	0.02546296296313
01:18:40.143	0.000366	0.02546296296313
01:18:40.143	-3.1E-05	0.02546296296313
01:18:40.144	-0.000427	0.026620370370545
01:18:40.144	-0.000671	0.026620370370545
01:18:40.144	-0.00058	0.026620370370545
01:18:40.144	-0.000763	0.026620370370545
01:18:40.144	-0.000793	0.026620370370545
01:18:40.145	-0.000763	0.027777777778654
01:18:40.145	-0.000916	0.027777777778654
01:18:40.145	-0.001099	0.027777777778654
01:18:40.145	-0.001495	0.027777777778654
01:18:40.145	-0.001984	0.027777777778654
01:18:40.146	-0.002167	0.028935185185375
01:18:40.146	-0.002228	0.028935185185375
01:18:40.146	-0.00238	0.028935185185375
01:18:40.146	-0.002197	0.028935185185375
01:18:40.146	-0.001953	0.028935185185375
01:18:40.147	-0.001495	0.03009259259279
01:18:40.147	-0.000977	0.03009259259279
01:18:40.147	-0.000549	0.03009259259279
01:18:40.147	-0.000244	0.03009259259279
01:18:40.147	9.2E-05	0.03009259259279
01:18:40.148	0.000305	0.031250000000205
01:18:40.148	0.00058	0.031250000000205
01:18:40.148	0.001038	0.031250000000205
01:18:40.148	0.001373	0.031250000000205
01:18:40.148	0.001434	0.031250000000205
01:18:40.149	0.001099	0.032407407408314
01:18:40.149	0.000671	0.032407407408314
01:18:40.149	9.2E-05	0.032407407408314
01:18:40.149	-0.000214	0.032407407408314
01:18:40.149	-0.000427	0.032407407408314
01:18:40.150	-0.00061	0.033564814814341
01:18:40.150	-0.000854	0.033564814814341
01:18:40.150	-0.000916	0.033564814814341
01:18:40.150	-0.000916	0.033564814814341
01:18:40.150	-0.000854	0.033564814814341
01:18:40.151	-0.000641	0.03472222222245
01:18:40.151	-0.000305	0.03472222222245
01:18:40.151	-0.000122	0.03472222222245
01:18:40.151	-0.000244	0.03472222222245
01:18:40.151	-9.2E-05	0.03472222222245
01:18:40.152	0.000244	0.035879629629865
01:18:40.152	0.000488	0.035879629629865
01:18:40.152	0.00058	0.035879629629865
01:18:40.152	0.000854	0.035879629629865
01:18:40.152	0.000824	0.035879629629865
01:18:40.153	0.000824	0.03703703703728
01:18:40.153	0.000671	0.03703703703728
01:18:40.153	0.000671	0.03703703703728
01:18:40.153	0.000763	0.03703703703728
01:18:40.153	0.000793	0.03703703703728
01:18:40.154	0.000793	0.038194444445389
01:18:40.154	0.00119	0.038194444445389
01:18:40.154	0.00174	0.038194444445389
01:18:40.154	0.002014	0.038194444445389
01:18:40.154	0.002228	0.038194444445389
01:18:40.155	0.002228	0.03935185185211
01:18:40.155	0.001984	0.03935185185211
01:18:40.155	0.00174	0.03935185185211
01:18:40.155	0.001465	0.03935185185211
01:18:40.155	0.00119	0.03935185185211
01:18:40.156	0.000946	0.040509259259525
01:18:40.156	0.00058	0.040509259259525
01:18:40.156	-0.000122	0.040509259259525
01:18:40.156	-0.000366	0.040509259259525
01:18:40.156	-0.000549	0.040509259259525
01:18:40.157	-0.000427	0.04166666666694
01:18:40.157	-0.000153	0.04166666666694
01:18:40.157	0.000244	0.04166666666694
01:18:40.157	0.000488	0.04166666666694
01:18:40.157	0.000671	0.04166666666694
01:18:40.158	0.000641	0.042824074075049
01:18:40.158	0.000488	0.042824074075049
01:18:40.158	0.000397	0.042824074075049
01:18:40.158	0.000275	0.042824074075049
01:18:40.158	0.000488	0.042824074075049
01:18:40.159	0.000397	0.043981481481076
01:18:40.159	0.000397	0.043981481481076
01:18:40.159	0.000275	0.043981481481076
01:18:40.159	6.1E-05	0.043981481481076
01:18:40.159	-0.000214	0.043981481481076
01:18:40.160	-0.000122	0.045138888889185
01:18:40.160	-0.000122	0.045138888889185
01:18:40.160	0	0.045138888889185
01:18:40.160	-3.1E-05	0.045138888889185
01:18:40.160	-0.000153	0.045138888889185
01:18:40.161	-0.000488	0.0462962962966
01:18:40.161	-0.00061	0.0462962962966
01:18:40.161	-0.000671	0.0462962962966
01:18:40.161	-0.000946	0.0462962962966
01:18:40.161	-0.001434	0.0462962962966
01:18:40.162	-0.00174	0.047453703704015
01:18:40.162	-0.001862	0.047453703704015
01:18:40.162	-0.002075	0.047453703704015
01:18:40.162	-0.002075	0.047453703704015
01:18:40.162	-0.001953	0.047453703704015
01:18:40.163	-0.002106	0.048611111110736
01:18:40.163	-0.002686	0.048611111110736
01:18:40.163	-0.003204	0.048611111110736
01:18:40.163	-0.003326	0.048611111110736
01:18:40.163	-0.003204	0.048611111110736
01:18:40.164	-0.00296	0.049768518518151
01:18:40.164	-0.002808	0.049768518518151
01:18:40.164	-0.002747	0.049768518518151
01:18:40.164	-0.003021	0.049768518518151
01:18:40.164	-0.00351	0.049768518518151
01:18:40.165	-0.003723	0.05092592592626
01:18:40.165	-0.003632	0.05092592592626
01:18:40.165	-0.003632	0.05092592592626
01:18:40.165	-0.003418	0.05092592592626
01:18:40.165	-0.002899	0.05092592592626
01:18:40.166	-0.00235	0.052083333333675
01:18:40.166	-0.00177	0.052083333333675
01:18:40.166	-0.001038	0.052083333333675
01:18:40.166	-0.000793	0.052083333333675
01:18:40.166	-0.000793	0.052083333333675
01:18:40.167	-0.000793	0.05324074074109
01:18:40.167	-0.000793	0.05324074074109
01:18:40.167	-0.000885	0.05324074074109
01:18:40.167	-0.000732	0.05324074074109
01:18:40.167	-0.000488	0.05324074074109
01:18:40.168	-0.000427	0.054398148147811
01:18:40.168	-0.000549	0.054398148147811
01:18:40.168	-0.000519	0.054398148147811
01:18:40.168	-0.000366	0.054398148147811
01:18:40.168	-0.000366	0.054398148147811
01:18:40.169	-0.000488	0.05555555555592
01:18:40.169	-0.000702	0.05555555555592
01:18:40.169	-0.001099	0.05555555555592
01:18:40.169	-0.001373	0.05555555555592
01:18:40.169	-0.001587	0.05555555555592
01:18:40.170	-0.001526	0.056712962963335
01:18:40.170	-0.00119	0.056712962963335
01:18:40.170	-0.000824	0.056712962963335
01:18:40.170	-0.000549	0.056712962963335
01:18:40.170	0.000244	0.056712962963335
01:18:40.171	0.001068	0.05787037037075
01:18:40.171	0.001526	0.05787037037075
01:18:40.171	0.001923	0.05787037037075
01:18:40.171	0.001984	0.05787037037075
01:18:40.171	0.001221	0.05787037037075
01:18:40.172	0.000519	0.059027777777471
01:18:40.172	-6.1E-05	0.059027777777471
01:18:40.172	-0.000427	0.059027777777471
01:18:40.172	-0.000549	0.059027777777471
01:18:40.172	-0.000397	0.059027777777471
01:18:40.173	-0.000488	0.060185185184886
01:18:40.173	-0.000366	0.060185185184886
01:18:40.173	-0.000305	0.060185185184886
01:18:40.173	-6.1E-05	0.060185185184886
01:18:40.173	0.000305	0.060185185184886
01:18:40.174	0.000397	0.061342592592995
01:18:40.174	0.000397	0.061342592592995
01:18:40.174	0.000275	0.061342592592995
01:18:40.174	0	0.061342592592995
01:18:40.174	-0.000519	0.061342592592995
01:18:40.175	-0.000885	0.06250000000041
01:18:40.175	-0.001282	0.06250000000041
01:18:40.175	-0.001434	0.06250000000041
01:18:40.175	-0.001587	0.06250000000041
01:18:40.175	-0.001648	0.06250000000041
01:18:40.176	-0.001709	0.063657407407825
01:18:40.176	-0.001831	0.063657407407825
01:18:40.176	-0.001831	0.063657407407825
01:18:40.176	-0.001648	0.063657407407825
01:18:40.176	-0.001648	0.063657407407825
01:18:40.177	-0.001617	0.064814814814546
01:18:40.177	-0.001556	0.064814814814546
01:18:40.177	-0.002014	0.064814814814546
01:18:40.177	-0.002319	0.064814814814546
01:18:40.177	-0.002319	0.064814814814546
01:18:40.178	-0.00235	0.065972222221961
01:18:40.178	-0.002686	0.065972222221961
01:18:40.178	-0.002899	0.065972222221961
01:18:40.178	-0.003387	0.065972222221961
01:18:40.178	-0.003662	0.065972222221961
01:18:40.179	-0.003632	0.067129629630069
01:18:40.179	-0.003265	0.067129629630069
01:18:40.179	-0.002777	0.067129629630069
01:18:40.179	-0.002441	0.067129629630069
01:18:40.179	-0.00238	0.067129629630069
01:18:40.180	-0.00235	0.068287037037484
01:18:40.180	-0.00238	0.068287037037484
01:18:40.180	-0.00238	0.068287037037484
01:18:40.180	-0.002258	0.068287037037484
01:18:40.180	-0.002258	0.068287037037484
01:18:40.181	-0.002411	0.069444444444206
01:18:40.181	-0.002472	0.069444444444206
01:18:40.181	-0.002686	0.069444444444206
01:18:40.181	-0.002777	0.069444444444206
01:18:40.181	-0.00296	0.069444444444206
01:18:40.182	-0.003296	0.070601851851621
01:18:40.182	-0.00354	0.070601851851621
01:18:40.182	-0.003479	0.070601851851621
01:18:40.182	-0.003479	0.070601851851621
01:18:40.182	-0.003174	0.070601851851621
01:18:40.183	-0.002747	0.071759259259729
01:18:40.183	-0.002502	0.071759259259729
01:18:40.183	-0.002655	0.071759259259729
01:18:40.183	-0.002899	0.071759259259729
01:18:40.183	-0.003204	0.071759259259729
01:18:40.184	-0.00351	0.072916666667144
01:18:40.184	-0.003662	0.072916666667144
01:18:40.184	-0.003479	0.072916666667144
01:18:40.184	-0.003265	0.072916666667144
01:18:40.184	-0.003082	0.072916666667144
01:18:40.185	-0.002716	0.074074074074559
01:18:40.185	-0.002228	0.074074074074559
01:18:40.185	-0.001892	0.074074074074559
01:18:40.185	-0.001526	0.074074074074559
01:18:40.185	-0.001251	0.074074074074559
01:18:40.186	-0.001007	0.075231481481281
01:18:40.186	-0.000885	0.075231481481281
01:18:40.186	-0.000885	0.075231481481281
01:18:40.186	-0.000977	0.075231481481281
01:18:40.186	-0.000977	0.075231481481281
01:18:40.187	-0.001282	0.076388888888696
01:18:40.187	-0.001343	0.076388888888696
01:18:40.187	-0.001099	0.076388888888696
01:18:40.187	-0.000977	0.076388888888696
01:18:40.187	-0.000885	0.076388888888696
01:18:40.188	-0.000641	0.077546296296804
01:18:40.188	-0.000641	0.077546296296804
01:18:40.188	-0.000275	0.077546296296804
01:18:40.188	0.000641	0.077546296296804
01:18:40.188	0.001801	0.077546296296804
01:18:40.189	0.003265	0.078703703704219
01:18:40.189	0.00473	0.078703703704219
01:18:40.189	0.006134	0.078703703704219
01:18:40.189	0.007172	0.078703703704219
01:18:40.189	0.00824	0.078703703704219
01:18:40.190	0.009033	0.07986111111094
01:18:40.190	0.009888	0.07986111111094
01:18:40.190	0.010468	0.07986111111094
01:18:40.190	0.010803	0.07986111111094
01:18:40.190	0.010986	0.07986111111094
01:18:40.191	0.011047	0.081018518518355
01:18:40.191	0.010986	0.081018518518355
01:18:40.191	0.011017	0.081018518518355
01:18:40.191	0.011292	0.081018518518355
01:18:40.191	0.01181	0.081018518518355
01:18:40.192	0.012695	0.082175925926464
01:18:40.192	0.01355	0.082175925926464
01:18:40.192	0.014069	0.082175925926464
01:18:40.192	0.014587	0.082175925926464
01:18:40.192	0.014313	0.082175925926464
01:18:40.193	0.013275	0.083333333333879
01:18:40.193	0.011383	0.083333333333879
01:18:40.193	0.008209	0.083333333333879
01:18:40.193	0.003174	0.083333333333879
01:18:40.193	-0.00351	0.083333333333879
01:18:40.194	-0.011749	0.084490740741294
01:18:40.194	-0.02063	0.084490740741294
01:18:40.194	-0.029175	0.084490740741294
01:18:40.194	-0.036224	0.084490740741294
01:18:40.194	-0.041321	0.084490740741294
01:18:40.195	-0.044037	0.085648148148015
01:18:40.195	-0.044373	0.085648148148015
01:18:40.195	-0.042297	0.085648148148015
01:18:40.195	-0.038849	0.085648148148015
01:18:40.195	-0.034698	0.085648148148015
01:18:40.196	-0.030701	0.08680555555543
01:18:40.196	-0.028076	0.08680555555543
01:18:40.196	-0.027649	0.08680555555543
01:18:40.196	-0.028748	0.08680555555543
01:18:40.196	-0.030975	0.08680555555543
01:18:40.197	-0.033966	0.087962962963539
01:18:40.197	-0.037018	0.087962962963539
01:18:40.197	-0.039917	0.087962962963539
01:18:40.197	-0.042999	0.087962962963539
01:18:40.197	-0.045959	0.087962962963539
01:18:40.198	-0.048767	0.089120370370954
01:18:40.198	-0.051758	0.089120370370954
01:18:40.198	-0.05542	0.089120370370954
01:18:40.198	-0.059784	0.089120370370954
01:18:40.198	-0.064636	0.089120370370954
01:18:40.199	-0.069	0.090277777777675
01:18:40.199	-0.071381	0.090277777777675
01:18:40.199	-0.070038	0.090277777777675
01:18:40.199	-0.064117	0.090277777777675
01:18:40.199	-0.05368	0.090277777777675
01:18:40.200	-0.039246	0.09143518518509
01:18:40.200	-0.022217	0.09143518518509
01:18:40.200	-0.004761	0.09143518518509
01:18:40.200	0.010864	0.09143518518509
01:18:40.200	0.023315	0.09143518518509
01:18:40.201	0.03186	0.092592592592505
01:18:40.201	0.03653	0.092592592592505
01:18:40.201	0.038361	0.092592592592505
01:18:40.201	0.038849	0.092592592592505
01:18:40.201	0.039459	0.092592592592505
01:18:40.202	0.040253	0.093750000000614
01:18:40.202	0.041382	0.093750000000614
01:18:40.202	0.042786	0.093750000000614
01:18:40.202	0.044312	0.093750000000614
01:18:40.202	0.045471	0.093750000000614
01:18:40.203	0.046539	0.094907407408029
01:18:40.203	0.047729	0.094907407408029
01:18:40.203	0.049194	0.094907407408029
01:18:40.203	0.051117	0.094907407408029
01:18:40.203	0.05304	0.094907407408029
01:18:40.204	0.054688	0.09606481481475
01:18:40.204	0.055969	0.09606481481475
01:18:40.204	0.056763	0.09606481481475
01:18:40.204	0.056885	0.09606481481475
01:18:40.204	0.056915	0.09606481481475
01:18:40.205	0.056854	0.097222222222165
01:18:40.205	0.056702	0.097222222222165
01:18:40.205	0.056641	0.097222222222165
01:18:40.205	0.056641	0.097222222222165
01:18:40.205	0.056213	0.097222222222165
01:18:40.206	0.055786	0.098379629630274
01:18:40.206	0.055054	0.098379629630274
01:18:40.206	0.053741	0.098379629630274
01:18:40.206	0.051697	0.098379629630274
01:18:40.206	0.049438	0.098379629630274
01:18:40.207	0.047028	0.099537037037689
01:18:40.207	0.044067	0.099537037037689
01:18:40.207	0.04071	0.099537037037689
01:18:40.207	0.037415	0.099537037037689
01:18:40.207	0.033905	0.099537037037689
01:18:40.208	0.030365	0.10069444444441
01:18:40.208	0.027405	0.10069444444441
01:18:40.208	0.024963	0.10069444444441
01:18:40.208	0.022858	0.10069444444441
01:18:40.208	0.021118	0.10069444444441
01:18:40.209	-0.001495	0.101851851851825
01:18:40.209	-0.17276	0.101851851851825
01:18:40.209	-0.503296	0.101851851851825
01:18:40.209	-0.941376	0.101851851851825
01:18:40.209	-1.43573	0.101851851851825
01:18:40.210	-1.931061	0.10300925925924
01:18:40.210	-2.175507	0.10300925925924
01:18:40.210	-2.095276	0.10300925925924
01:18:40.210	-1.776001	0.10300925925924
01:18:40.210	-1.31897	0.10300925925924
01:18:40.211	-0.79715	0.104166666667349
01:18:40.211	-0.357758	0.104166666667349
01:18:40.211	-0.076111	0.104166666667349
01:18:40.211	0.076263	0.104166666667349
01:18:40.211	0.147949	0.104166666667349
01:18:40.212	0.177002	0.105324074074764
01:18:40.212	0.186279	0.105324074074764
01:18:40.212	0.187622	0.105324074074764
01:18:40.212	0.186493	0.105324074074764
01:18:40.212	0.184479	0.105324074074764
01:18:40.213	0.182037	0.106481481481485
01:18:40.213	0.17923	0.106481481481485
01:18:40.213	0.1763	0.106481481481485
01:18:40.213	0.173309	0.106481481481485
01:18:40.213	0.170502	0.106481481481485
01:18:40.214	0.167603	0.1076388888889
01:18:40.214	0.165009	0.1076388888889
01:18:40.214	0.16275	0.1076388888889
01:18:40.214	0.160553	0.1076388888889
01:18:40.214	0.158051	0.1076388888889
01:18:40.215	0.155975	0.108796296297009
01:18:40.215	0.154053	0.108796296297009
01:18:40.215	0.152191	0.108796296297009
01:18:40.215	0.150513	0.108796296297009
01:18:40.215	0.148926	0.108796296297009
01:18:40.216	0.147125	0.109953703704424
01:18:40.216	0.145355	0.109953703704424
01:18:40.216	0.143677	0.109953703704424
01:18:40.216	0.141754	0.109953703704424
01:18:40.216	0.140015	0.109953703704424
01:18:40.217	0.138123	0.111111111111145
01:18:40.217	0.135925	0.111111111111145
01:18:40.217	0.133545	0.111111111111145
01:18:40.217	0.131531	0.111111111111145
01:18:40.217	0.129517	0.111111111111145
01:18:40.218	0.127655	0.11226851851856
01:18:40.218	0.126099	0.11226851851856
01:18:40.218	0.124695	0.11226851851856
01:18:40.218	0.123169	0.11226851851856
01:18:40.218	0.121948	0.11226851851856
01:18:40.219	0.120422	0.113425925925975
01:18:40.219	0.118622	0.113425925925975
01:18:40.219	0.116699	0.113425925925975
01:18:40.219	0.114716	0.113425925925975
01:18:40.219	0.112274	0.113425925925975
01:18:40.220	0.109833	0.114583333334084
01:18:40.220	0.107971	0.114583333334084
01:18:40.220	0.106232	0.114583333334084
01:18:40.220	0.104248	0.114583333334084
01:18:40.220	0.102539	0.114583333334084
01:18:40.221	0.101166	0.115740740740111
01:18:40.221	0.099548	0.115740740740111
01:18:40.221	0.098114	0.115740740740111
01:18:40.221	0.097137	0.115740740740111
01:18:40.221	0.096375	0.115740740740111
01:18:40.222	0.095551	0.11689814814822
01:18:40.222	0.094421	0.11689814814822
01:18:40.222	0.092804	0.11689814814822
01:18:40.222	0.091156	0.11689814814822
01:18:40.222	0.089172	0.11689814814822
01:18:40.223	0.087158	0.118055555555635
01:18:40.223	0.085144	0.118055555555635
01:18:40.223	0.083374	0.118055555555635
01:18:40.223	0.081848	0.118055555555635
01:18:40.223	0.080536	0.118055555555635
01:18:40.224	0.079132	0.11921296296305
01:18:40.224	0.077942	0.11921296296305
01:18:40.224	0.076721	0.11921296296305
01:18:40.224	0.075317	0.11921296296305
01:18:40.224	0.074005	0.11921296296305
01:18:40.225	0.07309	0.120370370371159
01:18:40.225	0.072113	0.120370370371159
01:18:40.225	0.07132	0.120370370371159
01:18:40.225	0.070526	0.120370370371159
01:18:40.225	0.069336	0.120370370371159
01:18:40.226	0.068024	0.12152777777788
01:18:40.226	0.066772	0.12152777777788
01:18:40.226	0.065308	0.12152777777788
01:18:40.226	0.06369	0.12152777777788
01:18:40.226	0.062256	0.12152777777788
01:18:40.227	0.060913	0.122685185185295
01:18:40.227	0.059631	0.122685185185295
01:18:40.227	0.058502	0.122685185185295
01:18:40.227	0.057587	0.122685185185295
01:18:40.227	0.056702	0.122685185185295
01:18:40.228	0.055481	0.12384259259271
01:18:40.228	0.054077	0.12384259259271
01:18:40.228	0.052887	0.12384259259271
01:18:40.228	0.05191	0.12384259259271
01:18:40.228	0.051239	0.12384259259271
01:18:40.229	0.050934	0.125000000000819
01:18:40.229	0.050659	0.125000000000819
01:18:40.229	0.050079	0.125000000000819
01:18:40.229	0.049316	0.125000000000819
01:18:40.229	0.048218	0.125000000000819
01:18:40.230	0.046875	0.126157407406846
01:18:40.230	0.045563	0.126157407406846
01:18:40.230	0.044525	0.126157407406846
01:18:40.230	0.043396	0.126157407406846
01:18:40.230	0.042511	0.126157407406846
01:18:40.231	0.041809	0.127314814814955
01:18:40.231	0.041534	0.127314814814955
01:18:40.231	0.041077	0.127314814814955
01:18:40.231	0.040771	0.127314814814955
01:18:40.231	0.040436	0.127314814814955
01:18:40.232	0.040161	0.12847222222237
01:18:40.232	0.039459	0.12847222222237
01:18:40.232	0.038666	0.12847222222237
01:18:40.232	0.037689	0.12847222222237
01:18:40.232	0.03653	0.12847222222237
01:18:40.233	0.0354	0.129629629629785
01:18:40.233	0.034393	0.129629629629785
01:18:40.233	0.033417	0.129629629629785
01:18:40.233	0.032745	0.129629629629785
01:18:40.233	0.032166	0.129629629629785
01:18:40.234	0.031555	0.130787037037894
01:18:40.234	0.03125	0.130787037037894
01:18:40.234	0.031219	0.130787037037894
01:18:40.234	0.031067	0.130787037037894
01:18:40.234	0.030914	0.130787037037894
01:18:40.235	0.030823	0.131944444444615
01:18:40.235	0.030579	0.131944444444615
01:18:40.235	0.030365	0.131944444444615
01:18:40.235	0.030212	0.131944444444615
01:18:40.235	0.029907	0.131944444444615
01:18:40.236	0.029419	0.13310185185203
01:18:40.236	0.028748	0.13310185185203
01:18:40.236	0.027863	0.13310185185203
01:18:40.236	0.027039	0.13310185185203
01:18:40.236	0.026459	0.13310185185203
01:18:40.237	0.02597	0.134259259259445
01:18:40.237	0.025391	0.134259259259445
01:18:40.237	0.024902	0.134259259259445
01:18:40.237	0.024841	0.134259259259445
01:18:40.237	0.02478	0.134259259259445
01:18:40.238	0.024689	0.135416666667554
01:18:40.238	0.024628	0.135416666667554
01:18:40.238	0.024628	0.135416666667554
01:18:40.238	0.024109	0.135416666667554
01:18:40.238	0.023346	0.135416666667554
01:18:40.239	0.022644	0.136574074073581
01:18:40.239	0.021851	0.136574074073581
01:18:40.239	0.021118	0.136574074073581
01:18:40.239	0.020294	0.136574074073581
01:18:40.239	0.019684	0.136574074073581
01:18:40.240	0.019135	0.13773148148169
01:18:40.240	0.019104	0.13773148148169
01:18:40.240	0.019196	0.13773148148169
01:18:40.240	0.019226	0.13773148148169
01:18:40.240	0.019348	0.13773148148169
01:18:40.241	0.019348	0.138888888889105
01:18:40.241	0.01889	0.138888888889105
01:18:40.241	0.018555	0.138888888889105
01:18:40.241	0.018433	0.138888888889105
01:18:40.241	0.018219	0.138888888889105
01:18:40.242	0.017944	0.14004629629652
01:18:40.242	0.017609	0.14004629629652
01:18:40.242	0.016846	0.14004629629652
01:18:40.242	0.01593	0.14004629629652
01:18:40.242	0.015076	0.14004629629652
01:18:40.243	0.014374	0.141203703704629
01:18:40.243	0.013855	0.141203703704629
01:18:40.243	0.013367	0.141203703704629
01:18:40.243	0.013123	0.141203703704629
01:18:40.243	0.013031	0.141203703704629
01:18:40.244	0.012665	0.142361111110656
01:18:40.244	0.012329	0.142361111110656
01:18:40.244	0.012024	0.142361111110656
01:18:40.244	0.01123	0.142361111110656
01:18:40.244	0.010437	0.142361111110656
01:18:40.245	0.009766	0.143518518518765
01:18:40.245	0.009125	0.143518518518765
01:18:40.245	0.008026	0.143518518518765
01:18:40.245	0.00708	0.143518518518765
01:18:40.245	0.006073	0.143518518518765
01:18:40.246	0.005493	0.14467592592618
01:18:40.246	0.005035	0.14467592592618
01:18:40.246	0.004913	0.14467592592618
01:18:40.246	0.005157	0.14467592592618
01:18:40.246	0.005432	0.14467592592618
01:18:40.247	0.005798	0.145833333333595
01:18:40.247	0.006226	0.145833333333595
01:18:40.247	0.006866	0.145833333333595
01:18:40.247	0.007202	0.145833333333595
01:18:40.247	0.007538	0.145833333333595
01:18:40.248	0.00766	0.146990740740316
01:18:40.248	0.00766	0.146990740740316
01:18:40.248	0.007874	0.146990740740316
01:18:40.248	0.008057	0.146990740740316
01:18:40.248	0.007874	0.146990740740316
01:18:40.249	0.007446	0.148148148148425
01:18:40.249	0.006989	0.148148148148425
01:18:40.249	0.006165	0.148148148148425
01:18:40.249	0.006042	0.148148148148425
01:18:40.249	0.005981	0.148148148148425
01:18:40.250	0.00589	0.14930555555584
01:18:40.250	0.005737	0.14930555555584
01:18:40.250	0.005951	0.14930555555584
01:18:40.250	0.005646	0.14930555555584
01:18:40.250	0.005524	0.14930555555584
01:18:40.251	0.005341	0.150462962963255
01:18:40.251	0.00528	0.150462962963255
01:18:40.251	0.004852	0.150462962963255
01:18:40.251	0.004333	0.150462962963255
01:18:40.251	0.003967	0.150462962963255
01:18:40.252	0.003601	0.151620370371364
01:18:40.252	0.003174	0.151620370371364
01:18:40.252	0.00293	0.151620370371364
01:18:40.252	0.002594	0.151620370371364
01:18:40.252	0.002106	0.151620370371364
01:18:40.253	0.002045	0.152777777777391
01:18:40.253	0.001984	0.152777777777391
01:18:40.253	0.002045	0.152777777777391
01:18:40.253	0.002502	0.152777777777391
01:18:40.253	0.00293	0.152777777777391
01:18:40.254	0.003082	0.1539351851855
01:18:40.254	0.003387	0.1539351851855
01:18:40.254	0.003693	0.1539351851855
01:18:40.254	0.003693	0.1539351851855
01:18:40.254	0.00354	0.1539351851855
01:18:40.255	0.003448	0.155092592592915
01:18:40.255	0.003387	0.155092592592915
01:18:40.255	0.003021	0.155092592592915
01:18:40.255	0.002777	0.155092592592915
01:18:40.255	0.002594	0.155092592592915
01:18:40.256	0.002411	0.15625000000033
01:18:40.256	0.002167	0.15625000000033
01:18:40.256	0.002136	0.15625000000033
01:18:40.256	0.002258	0.15625000000033
01:18:40.256	0.002655	0.15625000000033
01:18:40.257	0.003052	0.157407407407051
01:18:40.257	0.003357	0.157407407407051
01:18:40.257	0.003601	0.157407407407051
01:18:40.257	0.003601	0.157407407407051
01:18:40.257	0.003418	0.157407407407051
01:18:40.258	0.003296	0.15856481481516
01:18:40.258	0.002991	0.15856481481516
01:18:40.258	0.002625	0.15856481481516
01:18:40.258	0.002502	0.15856481481516
01:18:40.258	0.002594	0.15856481481516
01:18:40.259	0.002441	0.159722222222575
01:18:40.259	0.00238	0.159722222222575
01:18:40.259	0.00238	0.159722222222575
01:18:40.259	0.002014	0.159722222222575
01:18:40.259	0.001709	0.159722222222575
01:18:40.260	0.001617	0.16087962962999
01:18:40.260	0.001648	0.16087962962999
01:18:40.260	0.00177	0.16087962962999
01:18:40.260	0.001831	0.16087962962999
01:18:40.260	0.001465	0.16087962962999
01:18:40.261	0.000916	0.162037037037405
01:18:40.261	0.000214	0.162037037037405
01:18:40.261	-0.000519	0.162037037037405
01:18:40.261	-0.001495	0.162037037037405
01:18:40.261	-0.002319	0.162037037037405
01:18:40.262	-0.002747	0.163194444444126
01:18:40.262	-0.002869	0.163194444444126
01:18:40.262	-0.002869	0.163194444444126
01:18:40.262	-0.002472	0.163194444444126
01:18:40.262	-0.002258	0.163194444444126
01:18:40.263	-0.00235	0.164351851852235
01:18:40.263	-0.002533	0.164351851852235
01:18:40.263	-0.002838	0.164351851852235
01:18:40.263	-0.002991	0.164351851852235
01:18:40.263	-0.002625	0.164351851852235
01:18:40.264	-0.002441	0.16550925925965
01:18:40.264	-0.002502	0.16550925925965
01:18:40.264	-0.002502	0.16550925925965
01:18:40.264	-0.002655	0.16550925925965
01:18:40.264	-0.002991	0.16550925925965
01:18:40.265	-0.003082	0.166666666667065
01:18:40.265	-0.00296	0.166666666667065
01:18:40.265	-0.003143	0.166666666667065
01:18:40.265	-0.003326	0.166666666667065
01:18:40.265	-0.003448	0.166666666667065
01:18:40.266	-0.003235	0.167824074073786
01:18:40.266	-0.002869	0.167824074073786
01:18:40.266	-0.002197	0.167824074073786
01:18:40.266	-0.001709	0.167824074073786
01:18:40.266	-0.001404	0.167824074073786
01:18:40.267	-0.00174	0.168981481481201
01:18:40.267	-0.002014	0.168981481481201
01:18:40.267	-0.002502	0.168981481481201
01:18:40.267	-0.002747	0.168981481481201
01:18:40.267	-0.002869	0.168981481481201
01:18:40.268	-0.002716	0.17013888888931
01:18:40.268	-0.00296	0.17013888888931
01:18:40.268	-0.002838	0.17013888888931
01:18:40.268	-0.002625	0.17013888888931
01:18:40.268	-0.002502	0.17013888888931
01:18:40.269	-0.002502	0.171296296296725
01:18:40.269	-0.00238	0.171296296296725
01:18:40.269	-0.002289	0.171296296296725
01:18:40.269	-0.002075	0.171296296296725
01:18:40.269	-0.002014	0.171296296296725
01:18:40.270	-0.001892	0.17245370370414
01:18:40.270	-0.001648	0.17245370370414
01:18:40.270	-0.001709	0.17245370370414
01:18:40.270	-0.002136	0.17245370370414
01:18:40.270	-0.002197	0.17245370370414
01:18:40.271	-0.002319	0.173611111110861
01:18:40.271	-0.002747	0.173611111110861
01:18:40.271	-0.003204	0.173611111110861
01:18:40.271	-0.003601	0.173611111110861
01:18:40.271	-0.004242	0.173611111110861
01:18:40.272	-0.004639	0.17476851851897
01:18:40.272	-0.004913	0.17476851851897
01:18:40.272	-0.005066	0.17476851851897
01:18:40.272	-0.005005	0.17476851851897
01:18:40.272	-0.004761	0.17476851851897
01:18:40.273	-0.004761	0.175925925926385
01:18:40.273	-0.004913	0.175925925926385
01:18:40.273	-0.00531	0.175925925926385
01:18:40.273	-0.00589	0.175925925926385
01:18:40.273	-0.006622	0.175925925926385
01:18:40.274	-0.007111	0.1770833333338
01:18:40.274	-0.007324	0.1770833333338
01:18:40.274	-0.007355	0.1770833333338
01:18:40.274	-0.007385	0.1770833333338
01:18:40.274	-0.00769	0.1770833333338
01:18:40.275	-0.008301	0.178240740740521
01:18:40.275	-0.009033	0.178240740740521
01:18:40.275	-0.009766	0.178240740740521
01:18:40.275	-0.010742	0.178240740740521
01:18:40.275	-0.011658	0.178240740740521
01:18:40.276	-0.012695	0.179398148147936
01:18:40.276	-0.014343	0.179398148147936
01:18:40.276	-0.016388	0.179398148147936
01:18:40.276	-0.01886	0.179398148147936
01:18:40.276	-0.021881	0.179398148147936
01:18:40.277	-0.025635	0.180555555556045
01:18:40.277	-0.029572	0.180555555556045
01:18:40.277	-0.034302	0.180555555556045
01:18:40.277	-0.039246	0.180555555556045
01:18:40.277	-0.04364	0.180555555556045
01:18:40.278	-0.047394	0.18171296296346
01:18:40.278	-0.050598	0.18171296296346
01:18:40.278	-0.052399	0.18171296296346
01:18:40.278	-0.052399	0.18171296296346
01:18:40.278	-0.050842	0.18171296296346
01:18:40.279	-0.047455	0.182870370370875
01:18:40.279	-0.042542	0.182870370370875
01:18:40.279	-0.036499	0.182870370370875
01:18:40.279	-0.029938	0.182870370370875
01:18:40.279	-0.023376	0.182870370370875
01:18:40.280	-0.016266	0.184027777777596
01:18:40.280	-0.008545	0.184027777777596
01:18:40.280	-0.000275	0.184027777777596
01:18:40.280	0.008331	0.184027777777596
01:18:40.280	0.016968	0.184027777777596
01:18:40.281	0.024567	0.185185185185011
01:18:40.281	0.030823	0.185185185185011
01:18:40.281	0.035706	0.185185185185011
01:18:40.281	0.039307	0.185185185185011
01:18:40.281	0.042084	0.185185185185011
01:18:40.282	0.044342	0.186342592593119
01:18:40.282	0.0466	0.186342592593119
01:18:40.282	0.048798	0.186342592593119
01:18:40.282	0.050659	0.186342592593119
01:18:40.282	0.05127	0.186342592593119
01:18:40.283	0.050293	0.187500000000534
01:18:40.283	0.047089	0.187500000000534
01:18:40.283	0.041656	0.187500000000534
01:18:40.283	0.034027	0.187500000000534
01:18:40.283	0.02533	0.187500000000534
01:18:40.284	0.016144	0.188657407407256
01:18:40.284	0.007751	0.188657407407256
01:18:40.284	0.001892	0.188657407407256
01:18:40.284	6.1E-05	0.188657407407256
01:18:40.284	0.003174	0.188657407407256
01:18:40.285	0.01297	0.189814814814671
01:18:40.285	0.030579	0.189814814814671
01:18:40.285	0.054626	0.189814814814671
01:18:40.285	0.083496	0.189814814814671
01:18:40.285	0.115295	0.189814814814671
01:18:40.286	0.147705	0.190972222222779
01:18:40.286	0.177917	0.190972222222779
01:18:40.286	0.204712	0.190972222222779
01:18:40.286	0.228088	0.190972222222779
01:18:40.286	0.247833	0.190972222222779
01:18:40.287	0.263916	0.192129629630194
01:18:40.287	0.276917	0.192129629630194
01:18:40.287	0.287323	0.192129629630194
01:18:40.287	0.294647	0.192129629630194
01:18:40.287	0.297699	0.192129629630194
01:18:40.288	0.295135	0.193287037036916
01:18:40.288	0.28653	0.193287037036916
01:18:40.288	0.273224	0.193287037036916
01:18:40.288	0.257416	0.193287037036916
01:18:40.288	0.241821	0.193287037036916
01:18:40.289	0.227509	0.194444444444331
01:18:40.289	0.213409	0.194444444444331
01:18:40.289	0.196625	0.194444444444331
01:18:40.289	0.175751	0.194444444444331
01:18:40.289	0.150574	0.194444444444331
01:18:40.290	0.123505	0.195601851851746
01:18:40.290	0.098114	0.195601851851746
01:18:40.290	0.076691	0.195601851851746
01:18:40.290	0.061523	0.195601851851746
01:18:40.290	0.056763	0.195601851851746
01:18:40.291	0.065552	0.196759259259854
01:18:40.291	0.090881	0.196759259259854
01:18:40.291	0.136871	0.196759259259854
01:18:40.291	0.203308	0.196759259259854
01:18:40.291	0.285126	0.196759259259854
01:18:40.292	0.374969	0.197916666667269
01:18:40.292	0.462128	0.197916666667269
01:18:40.292	0.532074	0.197916666667269
01:18:40.292	0.570435	0.197916666667269
01:18:40.292	0.566956	0.197916666667269
01:18:40.293	0.518188	0.19907407407399
01:18:40.293	0.429138	0.19907407407399
01:18:40.293	0.312408	0.19907407407399
01:18:40.293	0.18396	0.19907407407399
01:18:40.293	0.057709	0.19907407407399
01:18:40.294	-0.058044	0.200231481481405
01:18:40.294	-0.160767	0.200231481481405
01:18:40.294	-0.252136	0.200231481481405
01:18:40.294	-0.334076	0.200231481481405
01:18:40.294	-0.407898	0.200231481481405
01:18:40.295	-0.473389	0.201388888889514
01:18:40.295	-0.529572	0.201388888889514
01:18:40.295	-0.57489	0.201388888889514
01:18:40.295	-0.60965	0.201388888889514
01:18:40.295	-0.634186	0.201388888889514
01:18:40.296	-0.649628	0.202546296296929
01:18:40.296	-0.657959	0.202546296296929
01:18:40.296	-0.66098	0.202546296296929
01:18:40.296	-0.660065	0.202546296296929
01:18:40.296	-0.656647	0.202546296296929
01:18:40.297	-0.651978	0.20370370370365
01:18:40.297	-0.646698	0.20370370370365
01:18:40.297	-0.641266	0.20370370370365
01:18:40.297	-0.63562	0.20370370370365
01:18:40.297	-0.629517	0.20370370370365
01:18:40.298	-0.623108	0.204861111111065
01:18:40.298	-0.616211	0.204861111111065
01:18:40.298	-0.608795	0.204861111111065
01:18:40.298	-0.600983	0.204861111111065
01:18:40.298	-0.59317	0.204861111111065
01:18:40.299	-0.584564	0.20601851851848
01:18:40.299	-0.575287	0.20601851851848
01:18:40.299	-0.565308	0.20601851851848
01:18:40.299	-0.55426	0.20601851851848
01:18:40.299	-0.542297	0.20601851851848
01:18:40.300	-0.529816	0.207175925926589
01:18:40.300	-0.516724	0.207175925926589
01:18:40.300	-0.503021	0.207175925926589
01:18:40.300	-0.488983	0.207175925926589
01:18:40.300	-0.474213	0.207175925926589
01:18:40.301	-0.458923	0.208333333334004
01:18:40.301	-0.442871	0.208333333334004
01:18:40.301	-0.426392	0.208333333334004
01:18:40.301	-0.409424	0.208333333334004
01:18:40.301	-0.391968	0.208333333334004
01:18:40.302	-0.374359	0.209490740740725
01:18:40.302	-0.356842	0.209490740740725
01:18:40.302	-0.339386	0.209490740740725
01:18:40.302	-0.321838	0.209490740740725
01:18:40.302	-0.304779	0.209490740740725
01:18:40.303	-0.288055	0.21064814814814
01:18:40.303	-0.271637	0.21064814814814
01:18:40.303	-0.255371	0.21064814814814
01:18:40.303	-0.239227	0.21064814814814
01:18:40.303	-0.22348	0.21064814814814
01:18:40.304	-0.207855	0.211805555555555
01:18:40.304	-0.192474	0.211805555555555
01:18:40.304	-0.177521	0.211805555555555
01:18:40.304	-0.163422	0.211805555555555
01:18:40.304	-0.149567	0.211805555555555
01:18:40.305	-0.136322	0.212962962963664
01:18:40.305	-0.123871	0.212962962963664
01:18:40.305	-0.112213	0.212962962963664
01:18:40.305	-0.101166	0.212962962963664
01:18:40.305	-0.090942	0.212962962963664
01:18:40.306	-0.081299	0.214120370370385
01:18:40.306	-0.072144	0.214120370370385
01:18:40.306	-0.063416	0.214120370370385
01:18:40.306	-0.055328	0.214120370370385
01:18:40.306	-0.047607	0.214120370370385
01:18:40.307	-0.04068	0.2152777777778
01:18:40.307	-0.033966	0.2152777777778
01:18:40.307	-0.027924	0.2152777777778
01:18:40.307	-0.022186	0.2152777777778
01:18:40.307	-0.016937	0.2152777777778
01:18:40.308	-0.011688	0.216435185185215
01:18:40.308	-0.00708	0.216435185185215
01:18:40.308	-0.002563	0.216435185185215
01:18:40.308	0.001709	0.216435185185215
01:18:40.308	0.005493	0.216435185185215
01:18:40.309	0.008636	0.217592592593324
01:18:40.309	0.011414	0.217592592593324
01:18:40.309	0.01355	0.217592592593324
01:18:40.309	0.01535	0.217592592593324
01:18:40.309	0.017212	0.217592592593324
01:18:40.310	0.018921	0.218750000000739
01:18:40.310	0.020294	0.218750000000739
01:18:40.310	0.02179	0.218750000000739
01:18:40.310	0.023193	0.218750000000739
01:18:40.310	0.024353	0.218750000000739
01:18:40.311	0.025543	0.21990740740746
01:18:40.311	0.026947	0.21990740740746
01:18:40.311	0.028168	0.21990740740746
01:18:40.311	0.028778	0.21990740740746
01:18:40.311	0.029327	0.21990740740746
01:18:40.312	0.030029	0.221064814814875
01:18:40.312	0.030518	0.221064814814875
01:18:40.312	0.030914	0.221064814814875
01:18:40.312	0.031525	0.221064814814875
01:18:40.312	0.031921	0.221064814814875
01:18:40.313	0.031891	0.22222222222229
01:18:40.313	0.03183	0.22222222222229
01:18:40.313	0.031677	0.22222222222229
01:18:40.313	0.031555	0.22222222222229
01:18:40.313	0.031677	0.22222222222229
01:18:40.314	0.031952	0.223379629630399
01:18:40.314	0.032166	0.223379629630399
01:18:40.314	0.032715	0.223379629630399
01:18:40.314	0.033508	0.223379629630399
01:18:40.314	0.03421	0.223379629630399
01:18:40.315	0.034851	0.22453703703712
01:18:40.315	0.03537	0.22453703703712
01:18:40.315	0.035461	0.22453703703712
01:18:40.315	0.035461	0.22453703703712
01:18:40.315	0.03537	0.22453703703712
01:18:40.316	0.035217	0.225694444444535
01:18:40.316	0.035126	0.225694444444535
01:18:40.316	0.035309	0.225694444444535
01:18:40.316	0.035095	0.225694444444535
01:18:40.316	0.034821	0.225694444444535
01:18:40.317	0.034576	0.22685185185195
01:18:40.317	0.034454	0.22685185185195
01:18:40.317	0.034332	0.22685185185195
01:18:40.317	0.03476	0.22685185185195
01:18:40.317	0.0354	0.22685185185195
01:18:40.318	0.035889	0.228009259260059
01:18:40.318	0.036102	0.228009259260059
01:18:40.318	0.036255	0.228009259260059
01:18:40.318	0.036194	0.228009259260059
01:18:40.318	0.035645	0.228009259260059
01:18:40.319	0.035461	0.229166666667474
01:18:40.319	0.03537	0.229166666667474
01:18:40.319	0.035095	0.229166666667474
01:18:40.319	0.034698	0.229166666667474
01:18:40.319	0.034546	0.229166666667474
01:18:40.320	0.034515	0.230324074074195
01:18:40.320	0.034424	0.230324074074195
01:18:40.320	0.034332	0.230324074074195
01:18:40.320	0.034271	0.230324074074195
01:18:40.320	0.034424	0.230324074074195
01:18:40.321	0.034393	0.23148148148161
01:18:40.321	0.034668	0.23148148148161
01:18:40.321	0.035004	0.23148148148161
01:18:40.321	0.035248	0.23148148148161
01:18:40.321	0.0354	0.23148148148161
01:18:40.322	0.035248	0.232638888889025
01:18:40.322	0.034729	0.232638888889025
01:18:40.322	0.034454	0.232638888889025
01:18:40.322	0.03421	0.232638888889025
01:18:40.322	0.033936	0.232638888889025
01:18:40.323	0.033813	0.233796296297134
01:18:40.323	0.033783	0.233796296297134
01:18:40.323	0.033569	0.233796296297134
01:18:40.323	0.03363	0.233796296297134
01:18:40.323	0.033691	0.233796296297134
01:18:40.324	0.033569	0.234953703703161
01:18:40.324	0.033539	0.234953703703161
01:18:40.324	0.033264	0.234953703703161
01:18:40.324	0.032776	0.234953703703161
01:18:40.324	0.032288	0.234953703703161
01:18:40.325	0.031952	0.23611111111127
01:18:40.325	0.031677	0.23611111111127
01:18:40.325	0.031525	0.23611111111127
01:18:40.325	0.03125	0.23611111111127
01:18:40.325	0.030884	0.23611111111127
01:18:40.326	0.030396	0.237268518518685
01:18:40.326	0.029907	0.237268518518685
01:18:40.326	0.029663	0.237268518518685
01:18:40.326	0.029449	0.237268518518685
01:18:40.326	0.029083	0.237268518518685
01:18:40.327	0.02887	0.2384259259261
01:18:40.327	0.028625	0.2384259259261
01:18:40.327	0.028229	0.2384259259261
01:18:40.327	0.027924	0.2384259259261
01:18:40.327	0.027863	0.2384259259261
01:18:40.328	0.027435	0.239583333334209
01:18:40.328	0.026733	0.239583333334209
01:18:40.328	0.026154	0.239583333334209
01:18:40.328	0.025635	0.239583333334209
01:18:40.328	0.025208	0.239583333334209
01:18:40.329	0.025024	0.24074074074093
01:18:40.329	0.025024	0.24074074074093
01:18:40.329	0.024719	0.24074074074093
01:18:40.329	0.024658	0.24074074074093
01:18:40.329	0.024261	0.24074074074093
01:18:40.330	0.024048	0.241898148148345
01:18:40.330	0.023956	0.241898148148345
01:18:40.330	0.024261	0.241898148148345
01:18:40.330	0.024475	0.241898148148345
01:18:40.330	0.024719	0.241898148148345
01:18:40.331	0.024841	0.24305555555576
01:18:40.331	0.025055	0.24305555555576
01:18:40.331	0.024994	0.24305555555576
01:18:40.331	0.024841	0.24305555555576
01:18:40.331	0.024872	0.24305555555576
01:18:40.332	0.024628	0.244212962963869
01:18:40.332	0.0242	0.244212962963869
01:18:40.332	0.023895	0.244212962963869
01:18:40.332	0.02356	0.244212962963869
01:18:40.332	0.023346	0.244212962963869
01:18:40.333	0.023529	0.245370370369896
01:18:40.333	0.02356	0.245370370369896
01:18:40.333	0.023621	0.245370370369896
01:18:40.333	0.023834	0.245370370369896
01:18:40.333	0.024048	0.245370370369896
01:18:40.334	0.024109	0.246527777778005
01:18:40.334	0.024261	0.246527777778005
01:18:40.334	0.024414	0.246527777778005
01:18:40.334	0.024506	0.246527777778005
01:18:40.334	0.024292	0.246527777778005
01:18:40.335	0.024109	0.24768518518542
01:18:40.335	0.024139	0.24768518518542
01:18:40.335	0.024261	0.24768518518542
01:18:40.335	0.0242	0.24768518518542
01:18:40.335	0.024261	0.24768518518542
01:18:40.336	0.024292	0.248842592592835
01:18:40.336	0.024292	0.248842592592835
01:18:40.336	0.024109	0.248842592592835
01:18:40.336	0.024384	0.248842592592835
01:18:40.336	0.024933	0.248842592592835
01:18:40.337	0.025482	0.250000000000944
01:18:40.337	0.025818	0.250000000000944
01:18:40.337	0.026123	0.250000000000944
01:18:40.337	0.02597	0.250000000000944
01:18:40.337	0.025726	0.250000000000944
01:18:40.338	0.025513	0.251157407407665
01:18:40.338	0.02533	0.251157407407665
01:18:40.338	0.025208	0.251157407407665
01:18:40.338	0.025146	0.251157407407665
01:18:40.338	0.024994	0.251157407407665
01:18:40.339	0.024841	0.25231481481508
01:18:40.339	0.024658	0.25231481481508
01:18:40.339	0.024506	0.25231481481508
01:18:40.339	0.024292	0.25231481481508
01:18:40.339	0.024109	0.25231481481508
01:18:40.340	0.024292	0.253472222222495
01:18:40.340	0.024811	0.253472222222495
01:18:40.340	0.02533	0.253472222222495
01:18:40.340	0.025726	0.253472222222495
01:18:40.340	0.026031	0.253472222222495
01:18:40.341	0.02597	0.25462962962991
01:18:40.341	0.025665	0.25462962962991
01:18:40.341	0.025513	0.25462962962991
01:18:40.341	0.025391	0.25462962962991
01:18:40.341	0.02533	0.25462962962991
01:18:40.342	0.02594	0.255787037036631
01:18:40.342	0.026489	0.255787037036631
01:18:40.342	0.02655	0.255787037036631
01:18:40.342	0.026733	0.255787037036631
01:18:40.342	0.026855	0.255787037036631
01:18:40.343	0.026337	0.25694444444474
01:18:40.343	0.02594	0.25694444444474
01:18:40.343	0.025787	0.25694444444474
01:18:40.343	0.025696	0.25694444444474
01:18:40.343	0.025574	0.25694444444474
01:18:40.344	0.025024	0.258101851852155
01:18:40.344	0.024567	0.258101851852155
01:18:40.344	0.024139	0.258101851852155
01:18:40.344	0.023712	0.258101851852155
01:18:40.344	0.022888	0.258101851852155
01:18:40.345	0.022278	0.25925925925957
01:18:40.345	0.021698	0.25925925925957
01:18:40.345	0.021423	0.25925925925957
01:18:40.345	0.021271	0.25925925925957
01:18:40.345	0.021454	0.25925925925957
01:18:40.346	0.022156	0.260416666666291
01:18:40.346	0.022736	0.260416666666291
01:18:40.346	0.022949	0.260416666666291
01:18:40.346	0.023071	0.260416666666291
01:18:40.346	0.023285	0.260416666666291
01:18:40.347	0.023102	0.261574074073706
01:18:40.347	0.023193	0.261574074073706
01:18:40.347	0.023499	0.261574074073706
01:18:40.347	0.02359	0.261574074073706
01:18:40.347	0.023651	0.261574074073706
01:18:40.348	0.023865	0.262731481481815
01:18:40.348	0.023285	0.262731481481815
01:18:40.348	0.022675	0.262731481481815
01:18:40.348	0.022278	0.262731481481815
01:18:40.348	0.022186	0.262731481481815
01:18:40.349	0.022247	0.26388888888923
01:18:40.349	0.023163	0.26388888888923
01:18:40.349	0.024323	0.26388888888923
01:18:40.349	0.025604	0.26388888888923
01:18:40.349	0.026611	0.26388888888923
01:18:40.350	0.027283	0.265046296296645
01:18:40.350	0.027649	0.265046296296645
01:18:40.350	0.027649	0.265046296296645
01:18:40.350	0.027405	0.265046296296645
01:18:40.350	0.02713	0.265046296296645
01:18:40.351	0.026764	0.266203703703366
01:18:40.351	0.026398	0.266203703703366
01:18:40.351	0.026001	0.266203703703366
01:18:40.351	0.025696	0.266203703703366
01:18:40.351	0.025665	0.266203703703366
01:18:40.352	0.02597	0.267361111111475
01:18:40.352	0.026337	0.267361111111475
01:18:40.352	0.026703	0.267361111111475
01:18:40.352	0.026978	0.267361111111475
01:18:40.352	0.027161	0.267361111111475
01:18:40.353	0.027374	0.26851851851889
01:18:40.353	0.027466	0.26851851851889
01:18:40.353	0.027588	0.26851851851889
01:18:40.353	0.027802	0.26851851851889
01:18:40.353	0.027832	0.26851851851889
01:18:40.354	0.027679	0.269675925926305
01:18:40.354	0.027832	0.269675925926305
01:18:40.354	0.028137	0.269675925926305
01:18:40.354	0.028351	0.269675925926305
01:18:40.354	0.028473	0.269675925926305
01:18:40.355	0.028534	0.270833333333026
01:18:40.355	0.028351	0.270833333333026
01:18:40.355	0.028046	0.270833333333026
01:18:40.355	0.027893	0.270833333333026
01:18:40.355	0.027863	0.270833333333026
01:18:40.356	0.027954	0.271990740740441
01:18:40.356	0.028046	0.271990740740441
01:18:40.356	0.028168	0.271990740740441
01:18:40.356	0.028076	0.271990740740441
01:18:40.356	0.028046	0.271990740740441
01:18:40.357	0.028015	0.27314814814855
01:18:40.357	0.02771	0.27314814814855
01:18:40.357	0.027252	0.27314814814855
01:18:40.357	0.026886	0.27314814814855
01:18:40.357	0.026367	0.27314814814855
01:18:40.358	0.025909	0.274305555555965
01:18:40.358	0.025696	0.274305555555965
01:18:40.358	0.025665	0.274305555555965
01:18:40.358	0.025879	0.274305555555965
01:18:40.358	0.026184	0.274305555555965
01:18:40.359	0.026459	0.27546296296338
01:18:40.359	0.026825	0.27546296296338
01:18:40.359	0.027069	0.27546296296338
01:18:40.359	0.027008	0.27546296296338
01:18:40.359	0.027008	0.27546296296338
01:18:40.360	0.026672	0.276620370370101
01:18:40.360	0.026459	0.276620370370101
01:18:40.360	0.026428	0.276620370370101
01:18:40.360	0.026093	0.276620370370101
01:18:40.360	0.025482	0.276620370370101
01:18:40.361	0.025085	0.277777777777516
01:18:40.361	0.024323	0.277777777777516
01:18:40.361	0.023254	0.277777777777516
01:18:40.361	0.02243	0.277777777777516
01:18:40.361	0.022064	0.277777777777516
01:18:40.362	0.022156	0.278935185185625
01:18:40.362	0.022766	0.278935185185625
01:18:40.362	0.023651	0.278935185185625
01:18:40.362	0.024628	0.278935185185625
01:18:40.362	0.025299	0.278935185185625
01:18:40.363	0.025238	0.28009259259304
01:18:40.363	0.024689	0.28009259259304
01:18:40.363	0.023895	0.28009259259304
01:18:40.363	0.023102	0.28009259259304
01:18:40.363	0.022552	0.28009259259304
01:18:40.364	0.022278	0.281249999999761
01:18:40.364	0.021973	0.281249999999761
01:18:40.364	0.021881	0.281249999999761
01:18:40.364	0.021881	0.281249999999761
01:18:40.364	0.021973	0.281249999999761
01:18:40.365	0.022095	0.282407407407176
01:18:40.365	0.022369	0.282407407407176
01:18:40.365	0.022583	0.282407407407176
01:18:40.365	0.022736	0.282407407407176
01:18:40.365	0.02298	0.282407407407176
01:18:40.366	0.023163	0.283564814815285
01:18:40.366	0.023438	0.283564814815285
01:18:40.366	0.023682	0.283564814815285
01:18:40.366	0.023804	0.283564814815285
01:18:40.366	0.02359	0.283564814815285
01:18:40.367	0.023407	0.2847222222227
01:18:40.367	0.023071	0.2847222222227
01:18:40.367	0.022705	0.2847222222227
01:18:40.367	0.022369	0.2847222222227
01:18:40.367	0.022095	0.2847222222227
01:18:40.368	0.021912	0.285879629630115
01:18:40.368	0.02182	0.285879629630115
01:18:40.368	0.022247	0.285879629630115
01:18:40.368	0.022919	0.285879629630115
01:18:40.368	0.02356	0.285879629630115
01:18:40.369	0.024139	0.287037037036836
01:18:40.369	0.024567	0.287037037036836
01:18:40.369	0.024628	0.287037037036836
01:18:40.369	0.024384	0.287037037036836
01:18:40.369	0.023804	0.287037037036836
01:18:40.370	0.023132	0.288194444444251
01:18:40.370	0.022583	0.288194444444251
01:18:40.370	0.021667	0.288194444444251
01:18:40.370	0.020996	0.288194444444251
01:18:40.370	0.020782	0.288194444444251
01:18:40.371	0.020721	0.28935185185236
01:18:40.371	0.020782	0.28935185185236
01:18:40.371	0.021118	0.28935185185236
01:18:40.371	0.021332	0.28935185185236
01:18:40.371	0.021606	0.28935185185236
01:18:40.372	0.021759	0.290509259259775
01:18:40.372	0.021881	0.290509259259775
01:18:40.372	0.02182	0.290509259259775
01:18:40.372	0.02179	0.290509259259775
01:18:40.372	0.021637	0.290509259259775
01:18:40.373	0.021484	0.291666666666496
01:18:40.373	0.02124	0.291666666666496
01:18:40.373	0.021179	0.291666666666496
01:18:40.373	0.02121	0.291666666666496
01:18:40.373	0.021362	0.291666666666496
01:18:40.374	0.021698	0.292824074073911
01:18:40.374	0.022156	0.292824074073911
01:18:40.374	0.022278	0.292824074073911
01:18:40.374	0.022217	0.292824074073911
01:18:40.374	0.021881	0.292824074073911
01:18:40.375	0.021332	0.29398148148202
01:18:40.375	0.020813	0.29398148148202
01:18:40.375	0.020782	0.29398148148202
01:18:40.375	0.020782	0.29398148148202
01:18:40.375	0.020691	0.29398148148202
01:18:40.376	0.020386	0.295138888889435
01:18:40.376	0.019989	0.295138888889435
01:18:40.376	0.01944	0.295138888889435
01:18:40.376	0.018768	0.295138888889435
01:18:40.376	0.018066	0.295138888889435
01:18:40.377	0.01767	0.29629629629685
01:18:40.377	0.01709	0.29629629629685
01:18:40.377	0.016449	0.29629629629685
01:18:40.377	0.016022	0.29629629629685
01:18:40.377	0.015778	0.29629629629685
01:18:40.378	0.01535	0.297453703703571
01:18:40.378	0.014923	0.297453703703571
01:18:40.378	0.014679	0.297453703703571
01:18:40.378	0.014801	0.297453703703571
01:18:40.378	0.015045	0.297453703703571
01:18:40.379	0.015808	0.298611111110986
01:18:40.379	0.016449	0.298611111110986
01:18:40.379	0.016998	0.298611111110986
01:18:40.379	0.016876	0.298611111110986
01:18:40.379	0.016541	0.298611111110986
01:18:40.380	0.0159	0.299768518519095
01:18:40.380	0.015198	0.299768518519095
01:18:40.380	0.014465	0.299768518519095
01:18:40.380	0.014038	0.299768518519095
01:18:40.380	0.013641	0.299768518519095
01:18:40.381	0.013397	0.30092592592651
01:18:40.381	0.013611	0.30092592592651
01:18:40.381	0.014221	0.30092592592651
01:18:40.381	0.014923	0.30092592592651
01:18:40.381	0.015625	0.30092592592651
01:18:40.382	0.016022	0.302083333333231
01:18:40.382	0.016174	0.302083333333231
01:18:40.382	0.015991	0.302083333333231
01:18:40.382	0.015778	0.302083333333231
01:18:40.382	0.015717	0.302083333333231
01:18:40.383	0.015656	0.303240740740646
01:18:40.383	0.015411	0.303240740740646
01:18:40.383	0.015076	0.303240740740646
01:18:40.383	0.01474	0.303240740740646
01:18:40.383	0.014374	0.303240740740646
01:18:40.384	0.01413	0.304398148148061
01:18:40.384	0.014069	0.304398148148061
01:18:40.384	0.014008	0.304398148148061
01:18:40.384	0.013977	0.304398148148061
01:18:40.384	0.013855	0.304398148148061
01:18:40.385	0.014008	0.30555555555617
01:18:40.385	0.014374	0.30555555555617
01:18:40.385	0.014709	0.30555555555617
01:18:40.385	0.014954	0.30555555555617
01:18:40.385	0.01532	0.30555555555617
01:18:40.386	0.015472	0.306712962963585
01:18:40.386	0.015259	0.306712962963585
01:18:40.386	0.014832	0.306712962963585
01:18:40.386	0.014404	0.306712962963585
01:18:40.386	0.014069	0.306712962963585
01:18:40.387	0.013763	0.307870370370306
01:18:40.387	0.013824	0.307870370370306
01:18:40.387	0.014282	0.307870370370306
01:18:40.387	0.014648	0.307870370370306
01:18:40.387	0.014923	0.307870370370306
01:18:40.388	0.015045	0.309027777777721
01:18:40.388	0.014954	0.309027777777721
01:18:40.388	0.014923	0.309027777777721
01:18:40.388	0.014984	0.309027777777721
01:18:40.388	0.014709	0.309027777777721
01:18:40.389	0.014282	0.310185185185829
01:18:40.389	0.013947	0.310185185185829
01:18:40.389	0.013123	0.310185185185829
01:18:40.389	0.012512	0.310185185185829
01:18:40.389	0.012085	0.310185185185829
01:18:40.390	0.011658	0.311342592593244
01:18:40.390	0.011261	0.311342592593244
01:18:40.390	0.011383	0.311342592593244
01:18:40.390	0.011139	0.311342592593244
01:18:40.390	0.011139	0.311342592593244
01:18:40.391	0.011383	0.312499999999966
01:18:40.391	0.011719	0.312499999999966
01:18:40.391	0.011963	0.312499999999966
01:18:40.391	0.012299	0.312499999999966
01:18:40.391	0.012421	0.312499999999966
01:18:40.392	0.012848	0.313657407407381
01:18:40.392	0.01297	0.313657407407381
01:18:40.392	0.012787	0.313657407407381
01:18:40.392	0.012421	0.313657407407381
01:18:40.392	0.012177	0.313657407407381
01:18:40.393	0.011505	0.314814814814796
01:18:40.393	0.011169	0.314814814814796
01:18:40.393	0.011139	0.314814814814796
01:18:40.393	0.011139	0.314814814814796
01:18:40.393	0.011047	0.314814814814796
01:18:40.394	0.010925	0.315972222222904
01:18:40.394	0.010742	0.315972222222904
01:18:40.394	0.010468	0.315972222222904
01:18:40.394	0.010284	0.315972222222904
01:18:40.394	0.009888	0.315972222222904
01:18:40.395	0.009338	0.317129629630319
01:18:40.395	0.008789	0.317129629630319
01:18:40.395	0.008545	0.317129629630319
01:18:40.395	0.008484	0.317129629630319
01:18:40.395	0.008392	0.317129629630319
01:18:40.396	0.008331	0.318287037037041
01:18:40.396	0.007965	0.318287037037041
01:18:40.396	0.006927	0.318287037037041
01:18:40.396	0.006226	0.318287037037041
01:18:40.396	0.005676	0.318287037037041
01:18:40.397	0.005341	0.319444444444456
01:18:40.397	0.005341	0.319444444444456
01:18:40.397	0.005707	0.319444444444456
01:18:40.397	0.005707	0.319444444444456
01:18:40.397	0.006165	0.319444444444456
01:18:40.398	0.006775	0.320601851852564
01:18:40.398	0.007324	0.320601851852564
01:18:40.398	0.007812	0.320601851852564
01:18:40.398	0.00824	0.320601851852564
01:18:40.398	0.008026	0.320601851852564
01:18:40.399	0.007446	0.321759259259979
01:18:40.399	0.006927	0.321759259259979
01:18:40.399	0.00647	0.321759259259979
01:18:40.399	0.006042	0.321759259259979
01:18:40.399	0.006012	0.321759259259979
01:18:40.400	0.006256	0.3229166666667
01:18:40.400	0.006622	0.3229166666667
01:18:40.400	0.006989	0.3229166666667
01:18:40.400	0.007385	0.3229166666667
01:18:40.400	0.007812	0.3229166666667
01:18:40.401	0.008179	0.324074074074115
01:18:40.401	0.008362	0.324074074074115
01:18:40.401	0.008484	0.324074074074115
01:18:40.401	0.008453	0.324074074074115
01:18:40.401	0.008331	0.324074074074115
01:18:40.402	0.008179	0.32523148148153
01:18:40.402	0.007935	0.32523148148153
01:18:40.402	0.007599	0.32523148148153
01:18:40.402	0.007294	0.32523148148153
01:18:40.402	0.006989	0.32523148148153
01:18:40.403	0.006531	0.326388888889639
01:18:40.403	0.006134	0.326388888889639
01:18:40.403	0.00592	0.326388888889639
01:18:40.403	0.005981	0.326388888889639
01:18:40.403	0.006134	0.326388888889639
01:18:40.404	0.006622	0.327546296297054
01:18:40.404	0.007141	0.327546296297054
01:18:40.404	0.007629	0.327546296297054
01:18:40.404	0.007843	0.327546296297054
01:18:40.404	0.007904	0.327546296297054
01:18:40.405	0.008026	0.328703703703775
01:18:40.405	0.008179	0.328703703703775
01:18:40.405	0.008301	0.328703703703775
01:18:40.405	0.008636	0.328703703703775
01:18:40.405	0.008789	0.328703703703775
01:18:40.406	-0.008728	0.32986111111119
01:18:40.406	-0.16983	0.32986111111119
01:18:40.406	-0.488403	0.32986111111119
01:18:40.406	-0.915131	0.32986111111119
01:18:40.406	-1.39917	0.32986111111119
01:18:40.407	-1.88913	0.331018518518605
01:18:40.407	-2.139008	0.331018518518605
01:18:40.407	-2.068695	0.331018518518605
01:18:40.407	-1.759888	0.331018518518605
01:18:40.407	-1.312592	0.331018518518605
01:18:40.408	-0.798645	0.332175925926714
01:18:40.408	-0.361328	0.332175925926714
01:18:40.408	-0.078644	0.332175925926714
01:18:40.408	0.07605	0.332175925926714
01:18:40.408	0.149963	0.332175925926714
01:18:40.409	0.179993	0.333333333333435
01:18:40.409	0.189362	0.333333333333435
01:18:40.409	0.190186	0.333333333333435
01:18:40.409	0.188446	0.333333333333435
01:18:40.409	0.186218	0.333333333333435
01:18:40.410	0.184143	0.33449074074085
01:18:40.410	0.182495	0.33449074074085
01:18:40.410	0.181213	0.33449074074085
01:18:40.410	0.179688	0.33449074074085
01:18:40.410	0.178131	0.33449074074085
01:18:40.411	0.176666	0.335648148148265
01:18:40.411	0.175262	0.335648148148265
01:18:40.411	0.173981	0.335648148148265
01:18:40.411	0.172821	0.335648148148265
01:18:40.411	0.172028	0.335648148148265
01:18:40.412	0.171356	0.336805555556374
01:18:40.412	0.170654	0.336805555556374
01:18:40.412	0.169952	0.336805555556374
01:18:40.412	0.169647	0.336805555556374
01:18:40.412	0.169556	0.336805555556374
01:18:40.413	0.16983	0.337962962962401
01:18:40.413	0.170654	0.337962962962401
01:18:40.413	0.171417	0.337962962962401
01:18:40.413	0.171906	0.337962962962401
01:18:40.413	0.172089	0.337962962962401
01:18:40.414	0.171783	0.33912037037051
01:18:40.414	0.171143	0.33912037037051
01:18:40.414	0.170807	0.33912037037051
01:18:40.414	0.170715	0.33912037037051
01:18:40.414	0.170837	0.33912037037051
01:18:40.415	0.171295	0.340277777777925
01:18:40.415	0.171387	0.340277777777925
01:18:40.415	0.170441	0.340277777777925
01:18:40.415	0.168304	0.340277777777925
01:18:40.415	0.165009	0.340277777777925
01:18:40.416	0.160675	0.34143518518534
01:18:40.416	0.155762	0.34143518518534
01:18:40.416	0.150208	0.34143518518534
01:18:40.416	0.144409	0.34143518518534
01:18:40.416	0.138367	0.34143518518534
01:18:40.417	0.13205	0.342592592593449
01:18:40.417	0.125641	0.342592592593449
01:18:40.417	0.119843	0.342592592593449
01:18:40.417	0.114655	0.342592592593449
01:18:40.417	0.109955	0.342592592593449
01:18:40.418	0.105774	0.34375000000017
01:18:40.418	0.101562	0.34375000000017
01:18:40.418	0.097229	0.34375000000017
01:18:40.418	0.09256	0.34375000000017
01:18:40.418	0.087799	0.34375000000017
01:18:40.419	0.083191	0.344907407407585
01:18:40.419	0.079285	0.344907407407585
01:18:40.419	0.076019	0.344907407407585
01:18:40.419	0.073792	0.344907407407585
01:18:40.419	0.072937	0.344907407407585
01:18:40.420	0.0737	0.346064814815
01:18:40.420	0.075836	0.346064814815
01:18:40.420	0.078552	0.346064814815
01:18:40.420	0.081207	0.346064814815
01:18:40.420	0.083313	0.346064814815
01:18:40.421	0.084991	0.347222222222415
01:18:40.421	0.086243	0.347222222222415
01:18:40.421	0.087738	0.347222222222415
01:18:40.421	0.089417	0.347222222222415
01:18:40.421	0.09082	0.347222222222415
01:18:40.422	0.091309	0.348379629629136
01:18:40.422	0.091003	0.348379629629136
01:18:40.422	0.089874	0.348379629629136
01:18:40.422	0.088348	0.348379629629136
01:18:40.422	0.086853	0.348379629629136
01:18:40.423	0.085388	0.349537037037245
01:18:40.423	0.083893	0.349537037037245
01:18:40.423	0.082733	0.349537037037245
01:18:40.423	0.082733	0.349537037037245
01:18:40.423	0.083344	0.349537037037245
01:18:40.424	0.084351	0.35069444444466
01:18:40.424	0.085541	0.35069444444466
01:18:40.424	0.086426	0.35069444444466
01:18:40.424	0.086121	0.35069444444466
01:18:40.424	0.085266	0.35069444444466
01:18:40.425	0.08374	0.351851851852075
01:18:40.425	0.081482	0.351851851852075
01:18:40.425	0.078369	0.351851851852075
01:18:40.425	0.07431	0.351851851852075
01:18:40.425	0.06955	0.351851851852075
01:18:40.426	0.065155	0.353009259260184
01:18:40.426	0.061493	0.353009259260184
01:18:40.426	0.058685	0.353009259260184
01:18:40.426	0.056763	0.353009259260184
01:18:40.426	0.05545	0.353009259260184
01:18:40.427	0.05365	0.354166666666211
01:18:40.427	0.051971	0.354166666666211
01:18:40.427	0.05011	0.354166666666211
01:18:40.427	0.048218	0.354166666666211
01:18:40.427	0.046387	0.354166666666211
01:18:40.428	0.045044	0.35532407407432
01:18:40.428	0.043518	0.35532407407432
01:18:40.428	0.042358	0.35532407407432
01:18:40.428	0.041687	0.35532407407432
01:18:40.428	0.04129	0.35532407407432
01:18:40.429	0.040955	0.356481481481735
01:18:40.429	0.040527	0.356481481481735
01:18:40.429	0.039154	0.356481481481735
01:18:40.429	0.037537	0.356481481481735
01:18:40.429	0.036133	0.356481481481735
01:18:40.430	0.035217	0.35763888888915
01:18:40.430	0.034637	0.35763888888915
01:18:40.430	0.0354	0.35763888888915
01:18:40.430	0.036224	0.35763888888915
01:18:40.430	0.036774	0.35763888888915
01:18:40.431	0.03717	0.358796296295871
01:18:40.431	0.037292	0.358796296295871
01:18:40.431	0.036896	0.358796296295871
01:18:40.431	0.036469	0.358796296295871
01:18:40.431	0.035858	0.358796296295871
01:18:40.432	0.035065	0.35995370370398
01:18:40.432	0.034454	0.35995370370398
01:18:40.432	0.033966	0.35995370370398
01:18:40.432	0.033569	0.35995370370398
01:18:40.432	0.033508	0.35995370370398
01:18:40.433	0.033386	0.361111111111395
01:18:40.433	0.033173	0.361111111111395
01:18:40.433	0.032776	0.361111111111395
01:18:40.433	0.032013	0.361111111111395
01:18:40.433	0.031006	0.361111111111395
01:18:40.434	0.029968	0.36226851851881
01:18:40.434	0.028992	0.36226851851881
01:18:40.434	0.028259	0.36226851851881
01:18:40.434	0.027771	0.36226851851881
01:18:40.434	0.02713	0.36226851851881
01:18:40.435	0.026672	0.363425925926919
01:18:40.435	0.026276	0.363425925926919
01:18:40.435	0.025848	0.363425925926919
01:18:40.435	0.025543	0.363425925926919
01:18:40.435	0.02536	0.363425925926919
01:18:40.436	0.025146	0.364583333332946
01:18:40.436	0.024841	0.364583333332946
01:18:40.436	0.024597	0.364583333332946
01:18:40.436	0.024384	0.364583333332946
01:18:40.436	0.024628	0.364583333332946
01:18:40.437	0.024902	0.365740740741055
01:18:40.437	0.025299	0.365740740741055
01:18:40.437	0.025635	0.365740740741055
01:18:40.437	0.025757	0.365740740741055
01:18:40.437	0.025513	0.365740740741055
01:18:40.438	0.024994	0.36689814814847
01:18:40.438	0.02417	0.36689814814847
01:18:40.438	0.023285	0.36689814814847
01:18:40.438	0.022522	0.36689814814847
01:18:40.438	0.021606	0.36689814814847
01:18:40.439	0.020874	0.368055555555885
01:18:40.439	0.020294	0.368055555555885
01:18:40.439	0.019958	0.368055555555885
01:18:40.439	0.019592	0.368055555555885
01:18:40.439	0.019379	0.368055555555885
01:18:40.440	0.019073	0.369212962962606
01:18:40.440	0.018921	0.369212962962606
01:18:40.440	0.018646	0.369212962962606
01:18:40.440	0.018127	0.369212962962606
01:18:40.440	0.017395	0.369212962962606
01:18:40.441	0.016571	0.370370370370021
01:18:40.441	0.015594	0.370370370370021
01:18:40.441	0.014832	0.370370370370021
01:18:40.441	0.014404	0.370370370370021
01:18:40.441	0.014221	0.370370370370021
01:18:40.442	0.014343	0.37152777777813
01:18:40.442	0.014557	0.37152777777813
01:18:40.442	0.014587	0.37152777777813
01:18:40.442	0.014771	0.37152777777813
01:18:40.442	0.014893	0.37152777777813
01:18:40.443	0.014832	0.372685185185545
01:18:40.443	0.014832	0.372685185185545
01:18:40.443	0.014709	0.372685185185545
01:18:40.443	0.014008	0.372685185185545
01:18:40.443	0.013336	0.372685185185545
01:18:40.444	0.01236	0.37384259259296
01:18:40.444	0.011261	0.37384259259296
01:18:40.444	0.010193	0.37384259259296
01:18:40.444	0.009674	0.37384259259296
01:18:40.444	0.009125	0.37384259259296
01:18:40.445	0.008881	0.374999999999681
01:18:40.445	0.008789	0.374999999999681
01:18:40.445	0.008942	0.374999999999681
01:18:40.445	0.009064	0.374999999999681
01:18:40.445	0.009216	0.374999999999681
01:18:40.446	0.009613	0.37615740740779
01:18:40.446	0.009735	0.37615740740779
01:18:40.446	0.00943	0.37615740740779
01:18:40.446	0.008972	0.37615740740779
01:18:40.446	0.008423	0.37615740740779
01:18:40.447	0.00766	0.377314814815205
01:18:40.447	0.007172	0.377314814815205
01:18:40.447	0.006775	0.377314814815205
01:18:40.447	0.006439	0.377314814815205
01:18:40.447	0.006317	0.377314814815205
01:18:40.448	0.006226	0.37847222222262
01:18:40.448	0.00592	0.37847222222262
01:18:40.448	0.006073	0.37847222222262
01:18:40.448	0.006134	0.37847222222262
01:18:40.448	0.006042	0.37847222222262
01:18:40.449	0.006134	0.379629629629341
01:18:40.449	0.006714	0.379629629629341
01:18:40.449	0.006561	0.379629629629341
01:18:40.449	0.007172	0.379629629629341
01:18:40.449	0.00769	0.379629629629341
01:18:40.450	0.007965	0.380787037036756
01:18:40.450	0.00769	0.380787037036756
01:18:40.450	0.007751	0.380787037036756
01:18:40.450	0.006775	0.380787037036756
01:18:40.450	0.006195	0.380787037036756
01:18:40.451	0.005859	0.381944444444865
01:18:40.451	0.005737	0.381944444444865
01:18:40.451	0.005554	0.381944444444865
01:18:40.451	0.005798	0.381944444444865
01:18:40.451	0.006012	0.381944444444865
01:18:40.452	0.006348	0.38310185185228
01:18:40.452	0.006622	0.38310185185228
01:18:40.452	0.006836	0.38310185185228
01:18:40.452	0.006744	0.38310185185228
01:18:40.452	0.006348	0.38310185185228
01:18:40.453	0.005585	0.384259259259695
01:18:40.453	0.005005	0.384259259259695
01:18:40.453	0.004578	0.384259259259695
01:18:40.453	0.004395	0.384259259259695
01:18:40.453	0.00412	0.384259259259695
01:18:40.454	0.003845	0.385416666666416
01:18:40.454	0.003479	0.385416666666416
01:18:40.454	0.003479	0.385416666666416
01:18:40.454	0.003387	0.385416666666416
01:18:40.454	0.003387	0.385416666666416
01:18:40.455	0.003662	0.386574074074525
01:18:40.455	0.004089	0.386574074074525
01:18:40.455	0.004364	0.386574074074525
01:18:40.455	0.004883	0.386574074074525
01:18:40.455	0.005493	0.386574074074525
01:18:40.456	0.00592	0.38773148148194
01:18:40.456	0.00592	0.38773148148194
01:18:40.456	0.005737	0.38773148148194
01:18:40.456	0.005219	0.38773148148194
01:18:40.456	0.004852	0.38773148148194
01:18:40.457	0.004486	0.388888888889355
01:18:40.457	0.004272	0.388888888889355
01:18:40.457	0.003845	0.388888888889355
01:18:40.457	0.003418	0.388888888889355
01:18:40.457	0.00293	0.388888888889355
01:18:40.458	0.002716	0.390046296296076
01:18:40.458	0.002502	0.390046296296076
01:18:40.458	0.002625	0.390046296296076
01:18:40.458	0.003082	0.390046296296076
01:18:40.458	0.003357	0.390046296296076
01:18:40.459	0.003357	0.391203703703491
01:18:40.459	0.003387	0.391203703703491
01:18:40.459	0.003082	0.391203703703491
01:18:40.459	0.002411	0.391203703703491
01:18:40.459	0.001953	0.391203703703491
01:18:40.460	0.001221	0.3923611111116
01:18:40.460	0.000641	0.3923611111116
01:18:40.460	0.000214	0.3923611111116
01:18:40.460	-0.000641	0.3923611111116
01:18:40.460	-0.001648	0.3923611111116
01:18:40.461	-0.002258	0.393518518519015
01:18:40.461	-0.002716	0.393518518519015
01:18:40.461	-0.00296	0.393518518519015
01:18:40.461	-0.002686	0.393518518519015
01:18:40.461	-0.002014	0.393518518519015
01:18:40.462	-0.00119	0.39467592592643
01:18:40.462	-0.000427	0.39467592592643
01:18:40.462	0.000397	0.39467592592643
01:18:40.462	0.00119	0.39467592592643
01:18:40.462	0.001648	0.39467592592643
01:18:40.463	0.001434	0.395833333333151
01:18:40.463	0.000641	0.395833333333151
01:18:40.463	-0.00061	0.395833333333151
01:18:40.463	-0.001587	0.395833333333151
01:18:40.463	-0.002289	0.395833333333151
01:18:40.464	-0.002533	0.396990740740566
01:18:40.464	-0.00238	0.396990740740566
01:18:40.464	-0.001678	0.396990740740566
01:18:40.464	-0.001129	0.396990740740566
01:18:40.464	-0.000763	0.396990740740566
01:18:40.465	-0.000183	0.398148148148675
01:18:40.465	0.000397	0.398148148148675
01:18:40.465	0.000458	0.398148148148675
01:18:40.465	0.000458	0.398148148148675
01:18:40.465	0.000427	0.398148148148675
01:18:40.466	0.000427	0.39930555555609
01:18:40.466	0.000427	0.39930555555609
01:18:40.466	0.000427	0.39930555555609
01:18:40.466	0.000122	0.39930555555609
01:18:40.466	-0.000397	0.39930555555609
01:18:40.467	-0.001129	0.400462962962811
01:18:40.467	-0.001648	0.400462962962811
01:18:40.467	-0.002014	0.400462962962811
01:18:40.467	-0.002167	0.400462962962811
01:18:40.467	-0.001923	0.400462962962811
01:18:40.468	-0.001556	0.401620370370226
01:18:40.468	-0.001343	0.401620370370226
01:18:40.468	-0.000671	0.401620370370226
01:18:40.468	0.000275	0.401620370370226
01:18:40.468	0.000885	0.401620370370226
01:18:40.469	0.001129	0.402777777778335
01:18:40.469	0.001251	0.402777777778335
01:18:40.469	0.000946	0.402777777778335
01:18:40.469	0.000397	0.402777777778335
01:18:40.469	-0.000183	0.402777777778335
01:18:40.470	-0.00061	0.40393518518575
01:18:40.470	-0.000916	0.40393518518575
01:18:40.470	-0.001312	0.40393518518575
01:18:40.470	-0.001648	0.40393518518575
01:18:40.470	-0.001526	0.40393518518575
01:18:40.471	-0.001343	0.405092592592471
01:18:40.471	-0.001221	0.405092592592471
01:18:40.471	-0.000946	0.405092592592471
01:18:40.471	-0.000732	0.405092592592471
01:18:40.471	-0.000885	0.405092592592471
01:18:40.472	-0.000854	0.406249999999886
01:18:40.472	-0.000854	0.406249999999886
01:18:40.472	-0.001221	0.406249999999886
01:18:40.472	-0.001495	0.406249999999886
01:18:40.472	-0.001831	0.406249999999886
01:18:40.473	-0.001923	0.407407407407301
01:18:40.473	-0.002045	0.407407407407301
01:18:40.473	-0.001678	0.407407407407301
01:18:40.473	-0.00119	0.407407407407301
01:18:40.473	-0.000854	0.407407407407301
01:18:40.474	-0.001129	0.40856481481541
01:18:40.474	-0.001068	0.40856481481541
01:18:40.474	-0.001129	0.40856481481541
01:18:40.474	-0.00119	0.40856481481541
01:18:40.474	-0.001038	0.40856481481541
01:18:40.475	-0.000702	0.409722222222825
01:18:40.475	-0.000641	0.409722222222825
01:18:40.475	-0.000519	0.409722222222825
01:18:40.475	-0.000427	0.409722222222825
01:18:40.475	-0.000488	0.409722222222825
01:18:40.476	-0.000824	0.410879629629546
01:18:40.476	-0.001282	0.410879629629546
01:18:40.476	-0.001923	0.410879629629546
01:18:40.476	-0.002655	0.410879629629546
01:18:40.476	-0.003357	0.410879629629546
01:18:40.477	-0.003906	0.412037037036961
01:18:40.477	-0.004517	0.412037037036961
01:18:40.477	-0.004913	0.412037037036961
01:18:40.477	-0.005096	0.412037037036961
01:18:40.477	-0.004883	0.412037037036961
01:18:40.478	-0.004791	0.41319444444507
01:18:40.478	-0.004944	0.41319444444507
01:18:40.478	-0.005402	0.41319444444507
01:18:40.478	-0.005951	0.41319444444507
01:18:40.478	-0.006683	0.41319444444507
01:18:40.479	-0.007141	0.414351851852485
01:18:40.479	-0.007507	0.414351851852485
01:18:40.479	-0.007782	0.414351851852485
01:18:40.479	-0.008118	0.414351851852485
01:18:40.479	-0.008484	0.414351851852485
01:18:40.480	-0.008759	0.415509259259206
01:18:40.480	-0.008667	0.415509259259206
01:18:40.480	-0.008392	0.415509259259206
01:18:40.480	-0.00827	0.415509259259206
01:18:40.480	-0.008118	0.415509259259206
01:18:40.481	-0.007812	0.416666666666621
01:18:40.481	-0.007172	0.416666666666621
01:18:40.481	-0.006378	0.416666666666621
01:18:40.481	-0.005371	0.416666666666621
01:18:40.481	-0.004303	0.416666666666621
01:18:40.482	-0.003723	0.417824074074036
01:18:40.482	-0.003601	0.417824074074036
01:18:40.482	-0.004028	0.417824074074036
01:18:40.482	-0.00412	0.417824074074036
01:18:40.482	-0.004272	0.417824074074036
01:18:40.483	-0.004303	0.418981481482145
01:18:40.483	-0.004395	0.418981481482145
01:18:40.483	-0.004211	0.418981481482145
01:18:40.483	-0.004272	0.418981481482145
01:18:40.483	-0.004425	0.418981481482145
01:18:40.484	-0.004486	0.42013888888956
01:18:40.484	-0.004333	0.42013888888956
01:18:40.484	-0.004059	0.42013888888956
01:18:40.484	-0.003998	0.42013888888956
01:18:40.484	-0.003815	0.42013888888956
01:18:40.485	-0.003235	0.421296296296281
01:18:40.485	-0.002838	0.421296296296281
01:18:40.485	-0.002472	0.421296296296281
01:18:40.485	-0.002136	0.421296296296281
01:18:40.485	-0.001892	0.421296296296281
01:18:40.486	-0.002289	0.422453703703696
01:18:40.486	-0.00235	0.422453703703696
01:18:40.486	-0.00238	0.422453703703696
01:18:40.486	-0.002045	0.422453703703696
01:18:40.486	-0.001526	0.422453703703696
01:18:40.487	-0.000763	0.423611111111111
01:18:40.487	-0.000305	0.423611111111111
01:18:40.487	0.000183	0.423611111111111
01:18:40.487	0.000275	0.423611111111111
01:18:40.487	0.000183	0.423611111111111
01:18:40.488	-3.1E-05	0.42476851851922
01:18:40.488	-9.2E-05	0.42476851851922
01:18:40.488	-0.000153	0.42476851851922
01:18:40.488	9.2E-05	0.42476851851922
01:18:40.488	3.1E-05	0.42476851851922
01:18:40.489	-0.000122	0.425925925925941
01:18:40.489	-0.000519	0.425925925925941
01:18:40.489	-0.001007	0.425925925925941
01:18:40.489	-0.00174	0.425925925925941
01:18:40.489	-0.002197	0.425925925925941
01:18:40.490	-0.002533	0.427083333333356
01:18:40.490	-0.002502	0.427083333333356
01:18:40.490	-0.002441	0.427083333333356
01:18:40.490	-0.002563	0.427083333333356
01:18:40.490	-0.002502	0.427083333333356
01:18:40.491	-0.00235	0.428240740740771
01:18:40.491	-0.002502	0.428240740740771
01:18:40.491	-0.002655	0.428240740740771
01:18:40.491	-0.002594	0.428240740740771
01:18:40.491	-0.002716	0.428240740740771
01:18:40.492	-0.002533	0.42939814814888
01:18:40.492	-0.00238	0.42939814814888
01:18:40.492	-0.002411	0.42939814814888
01:18:40.492	-0.002472	0.42939814814888
01:18:40.492	-0.002472	0.42939814814888
01:18:40.493	-0.002533	0.430555555556295
01:18:40.493	-0.002472	0.430555555556295
01:18:40.493	-0.002502	0.430555555556295
01:18:40.493	-0.002441	0.430555555556295
01:18:40.493	-0.002441	0.430555555556295
01:18:40.494	-0.002869	0.431712962963016
01:18:40.494	-0.003082	0.431712962963016
01:18:40.494	-0.00296	0.431712962963016
01:18:40.494	-0.003113	0.431712962963016
01:18:40.494	-0.00351	0.431712962963016
01:18:40.495	-0.003876	0.432870370370431
01:18:40.495	-0.004333	0.432870370370431
01:18:40.495	-0.004578	0.432870370370431
01:18:40.495	-0.004639	0.432870370370431
01:18:40.495	-0.004669	0.432870370370431
01:18:40.496	-0.00473	0.434027777777846
01:18:40.496	-0.005035	0.434027777777846
01:18:40.496	-0.005737	0.434027777777846
01:18:40.496	-0.006226	0.434027777777846
01:18:40.496	-0.00647	0.434027777777846
01:18:40.497	-0.006592	0.435185185185954
01:18:40.497	-0.006531	0.435185185185954
01:18:40.497	-0.006622	0.435185185185954
01:18:40.497	-0.00705	0.435185185185954
01:18:40.497	-0.007538	0.435185185185954
01:18:40.498	-0.008118	0.436342592592676
01:18:40.498	-0.008514	0.436342592592676
01:18:40.498	-0.008392	0.436342592592676
01:18:40.498	-0.007965	0.436342592592676
01:18:40.498	-0.007629	0.436342592592676
01:18:40.499	-0.006622	0.437500000000091
01:18:40.499	-0.005707	0.437500000000091
01:18:40.499	-0.005096	0.437500000000091
01:18:40.499	-0.00473	0.437500000000091
01:18:40.499	-0.004425	0.437500000000091
01:18:40.500	-0.004578	0.438657407407506
01:18:40.500	-0.004578	0.438657407407506
01:18:40.500	-0.004608	0.438657407407506
01:18:40.500	-0.004669	0.438657407407506
01:18:40.500	-0.004669	0.438657407407506
01:18:40.501	-0.00473	0.439814814815614
01:18:40.501	-0.005249	0.439814814815614
01:18:40.501	-0.005737	0.439814814815614
01:18:40.501	-0.006256	0.439814814815614
01:18:40.501	-0.006714	0.439814814815614
01:18:40.502	-0.007355	0.440972222223029
01:18:40.502	-0.007782	0.440972222223029
01:18:40.502	-0.00824	0.440972222223029
01:18:40.502	-0.008423	0.440972222223029
01:18:40.502	-0.008636	0.440972222223029
01:18:40.503	-0.00885	0.442129629629751
01:18:40.503	-0.009277	0.442129629629751
01:18:40.503	-0.009918	0.442129629629751
01:18:40.503	-0.01059	0.442129629629751
01:18:40.503	-0.011627	0.442129629629751
01:18:40.504	-0.012939	0.443287037037166
01:18:40.504	-0.014557	0.443287037037166
01:18:40.504	-0.016632	0.443287037037166
01:18:40.504	-0.019653	0.443287037037166
01:18:40.504	-0.022858	0.443287037037166
01:18:40.505	-0.026428	0.444444444444581
01:18:40.505	-0.030426	0.444444444444581
01:18:40.505	-0.034698	0.444444444444581
01:18:40.505	-0.038971	0.444444444444581
01:18:40.505	-0.043335	0.444444444444581
01:18:40.506	-0.047516	0.445601851852689
01:18:40.506	-0.051147	0.445601851852689
01:18:40.506	-0.053833	0.445601851852689
01:18:40.506	-0.055389	0.445601851852689
01:18:40.506	-0.055389	0.445601851852689
01:18:40.507	-0.053833	0.446759259258717
01:18:40.507	-0.050934	0.446759259258717
01:18:40.507	-0.046997	0.446759259258717
01:18:40.507	-0.042206	0.446759259258717
01:18:40.507	-0.037201	0.446759259258717
01:18:40.508	-0.031738	0.447916666666826
01:18:40.508	-0.025879	0.447916666666826
01:18:40.508	-0.018982	0.447916666666826
01:18:40.508	-0.01123	0.447916666666826
01:18:40.508	-0.002655	0.447916666666826
01:18:40.509	0.005829	0.449074074074241
01:18:40.509	0.013733	0.449074074074241
01:18:40.509	0.019714	0.449074074074241
01:18:40.509	0.024078	0.449074074074241
01:18:40.509	0.027069	0.449074074074241
01:18:40.510	0.029175	0.450231481481656
01:18:40.510	0.030914	0.450231481481656
01:18:40.510	0.03302	0.450231481481656
01:18:40.510	0.035126	0.450231481481656
01:18:40.510	0.036591	0.450231481481656
01:18:40.511	0.037231	0.451388888889764
01:18:40.511	0.036652	0.451388888889764
01:18:40.511	0.034393	0.451388888889764
01:18:40.511	0.030212	0.451388888889764
01:18:40.511	0.024963	0.451388888889764
01:18:40.512	0.01889	0.452546296296485
01:18:40.512	0.012177	0.452546296296485
01:18:40.512	0.005951	0.452546296296485
01:18:40.512	0.001862	0.452546296296485
01:18:40.512	0.000702	0.452546296296485
01:18:40.513	0.003906	0.4537037037039
01:18:40.513	0.013641	0.4537037037039
01:18:40.513	0.030365	0.4537037037039
01:18:40.513	0.053192	0.4537037037039
01:18:40.513	0.081085	0.4537037037039
01:18:40.514	0.111847	0.454861111111315
01:18:40.514	0.143005	0.454861111111315
01:18:40.514	0.172729	0.454861111111315
01:18:40.514	0.199554	0.454861111111315
01:18:40.514	0.22287	0.454861111111315
01:18:40.515	0.242706	0.456018518519424
01:18:40.515	0.259247	0.456018518519424
01:18:40.515	0.272736	0.456018518519424
01:18:40.515	0.283752	0.456018518519424
01:18:40.515	0.291779	0.456018518519424
01:18:40.516	0.295746	0.457175925925452
01:18:40.516	0.294159	0.457175925925452
01:18:40.516	0.286774	0.457175925925452
01:18:40.516	0.274384	0.457175925925452
01:18:40.516	0.259369	0.457175925925452
01:18:40.517	0.243927	0.45833333333356
01:18:40.517	0.229156	0.45833333333356
01:18:40.517	0.213989	0.45833333333356
01:18:40.517	0.196655	0.45833333333356
01:18:40.517	0.175995	0.45833333333356
01:18:40.518	0.153229	0.459490740740975
01:18:40.518	0.131439	0.459490740740975
01:18:40.518	0.113525	0.459490740740975
01:18:40.518	0.100922	0.459490740740975
01:18:40.518	0.096558	0.459490740740975
01:18:40.519	0.103546	0.46064814814839
01:18:40.519	0.124237	0.46064814814839
01:18:40.519	0.16098	0.46064814814839
01:18:40.519	0.216827	0.46064814814839
01:18:40.519	0.289703	0.46064814814839
01:18:40.520	0.373138	0.461805555556499
01:18:40.520	0.459045	0.461805555556499
01:18:40.520	0.536652	0.461805555556499
01:18:40.520	0.591278	0.461805555556499
01:18:40.520	0.609619	0.461805555556499
01:18:40.521	0.584167	0.462962962962526
01:18:40.521	0.514008	0.462962962962526
01:18:40.521	0.40799	0.462962962962526
01:18:40.521	0.280945	0.462962962962526
01:18:40.521	0.1492	0.462962962962526
01:18:40.522	0.024933	0.464120370370635
01:18:40.522	-0.086212	0.464120370370635
01:18:40.522	-0.184998	0.464120370370635
01:18:40.522	-0.27298	0.464120370370635
01:18:40.522	-0.352905	0.464120370370635
01:18:40.523	-0.425598	0.46527777777805
01:18:40.523	-0.490082	0.46527777777805
01:18:40.523	-0.544647	0.46527777777805
01:18:40.523	-0.588959	0.46527777777805
01:18:40.523	-0.622589	0.46527777777805
01:18:40.524	-0.646088	0.466435185185465
01:18:40.524	-0.660553	0.466435185185465
01:18:40.524	-0.668121	0.466435185185465
01:18:40.524	-0.670074	0.466435185185465
01:18:40.524	-0.668274	0.466435185185465
01:18:40.525	-0.663666	0.467592592592186
01:18:40.525	-0.657684	0.467592592592186
01:18:40.525	-0.650879	0.467592592592186
01:18:40.525	-0.643951	0.467592592592186
01:18:40.525	-0.636841	0.467592592592186
01:18:40.526	-0.630005	0.468750000000295
01:18:40.526	-0.62326	0.468750000000295
01:18:40.526	-0.616821	0.468750000000295
01:18:40.526	-0.610443	0.468750000000295
01:18:40.526	-0.60379	0.468750000000295
01:18:40.527	-0.596954	0.46990740740771
01:18:40.527	-0.589691	0.46990740740771
01:18:40.527	-0.581635	0.46990740740771
01:18:40.527	-0.572815	0.46990740740771
01:18:40.527	-0.563354	0.46990740740771
01:18:40.528	-0.553223	0.471064814815125
01:18:40.528	-0.542664	0.471064814815125
01:18:40.528	-0.530762	0.471064814815125
01:18:40.528	-0.517944	0.471064814815125
01:18:40.528	-0.504395	0.471064814815125
01:18:40.529	-0.490204	0.472222222223234
01:18:40.529	-0.47522	0.472222222223234
01:18:40.529	-0.460114	0.472222222223234
01:18:40.529	-0.444672	0.472222222223234
01:18:40.529	-0.428986	0.472222222223234
01:18:40.530	-0.413208	0.473379629629261
01:18:40.530	-0.3974	0.473379629629261
01:18:40.530	-0.381683	0.473379629629261
01:18:40.530	-0.365997	0.473379629629261
01:18:40.530	-0.350098	0.473379629629261
01:18:40.531	-0.333832	0.47453703703737
01:18:40.531	-0.31723	0.47453703703737
01:18:40.531	-0.300385	0.47453703703737
01:18:40.531	-0.28363	0.47453703703737
01:18:40.531	-0.266968	0.47453703703737
01:18:40.532	-0.25061	0.475694444444785
01:18:40.532	-0.234558	0.475694444444785
01:18:40.532	-0.218903	0.475694444444785
01:18:40.532	-0.203522	0.475694444444785
01:18:40.532	-0.188629	0.475694444444785
01:18:40.533	-0.173889	0.4768518518522
01:18:40.533	-0.159912	0.4768518518522
01:18:40.533	-0.146515	0.4768518518522
01:18:40.533	-0.13382	0.4768518518522
01:18:40.533	-0.121948	0.4768518518522
01:18:40.534	-0.110901	0.478009259258921
01:18:40.534	-0.100159	0.478009259258921
01:18:40.534	-0.089844	0.478009259258921
01:18:40.534	-0.079895	0.478009259258921
01:18:40.534	-0.070312	0.478009259258921
01:18:40.535	-0.061005	0.47916666666703
01:18:40.535	-0.052063	0.47916666666703
01:18:40.535	-0.043396	0.47916666666703
01:18:40.535	-0.035278	0.47916666666703
01:18:40.535	-0.027405	0.47916666666703
01:18:40.536	-0.020264	0.480324074074445
01:18:40.536	-0.014008	0.480324074074445
01:18:40.536	-0.008789	0.480324074074445
01:18:40.536	-0.00412	0.480324074074445
01:18:40.536	0.000214	0.480324074074445
01:18:40.537	0.004059	0.48148148148186
01:18:40.537	0.007782	0.48148148148186
01:18:40.537	0.011505	0.48148148148186
01:18:40.537	0.015015	0.48148148148186
01:18:40.537	0.018311	0.48148148148186
01:18:40.538	0.021332	0.482638888888581
01:18:40.538	0.0242	0.482638888888581
01:18:40.538	0.026794	0.482638888888581
01:18:40.538	0.029327	0.482638888888581
01:18:40.538	0.031403	0.482638888888581
01:18:40.539	0.033325	0.483796296295996
01:18:40.539	0.034943	0.483796296295996
01:18:40.539	0.036469	0.483796296295996
01:18:40.539	0.037689	0.483796296295996
01:18:40.539	0.038635	0.483796296295996
01:18:40.540	0.039551	0.484953703704105
01:18:40.540	0.040466	0.484953703704105
01:18:40.540	0.041016	0.484953703704105
01:18:40.540	0.041382	0.484953703704105
01:18:40.540	0.041687	0.484953703704105
01:18:40.541	0.041809	0.48611111111152
01:18:40.541	0.041779	0.48611111111152
01:18:40.541	0.042023	0.48611111111152
01:18:40.541	0.04245	0.48611111111152
01:18:40.541	0.043121	0.48611111111152
01:18:40.542	0.044037	0.487268518518935
01:18:40.542	0.044678	0.487268518518935
01:18:40.542	0.044922	0.487268518518935
01:18:40.542	0.045166	0.487268518518935
01:18:40.542	0.045105	0.487268518518935
01:18:40.543	0.044769	0.488425925925656
01:18:40.543	0.044556	0.488425925925656
01:18:40.543	0.044281	0.488425925925656
01:18:40.543	0.043884	0.488425925925656
01:18:40.543	0.04361	0.488425925925656
01:18:40.544	0.043213	0.489583333333071
01:18:40.544	0.042908	0.489583333333071
01:18:40.544	0.042664	0.489583333333071
01:18:40.544	0.042358	0.489583333333071
01:18:40.544	0.041992	0.489583333333071
01:18:40.545	0.041901	0.49074074074118
01:18:40.545	0.042114	0.49074074074118
01:18:40.545	0.042572	0.49074074074118
01:18:40.545	0.042969	0.49074074074118
01:18:40.545	0.042603	0.49074074074118
01:18:40.546	0.042175	0.491898148148595
01:18:40.546	0.041382	0.491898148148595
01:18:40.546	0.040344	0.491898148148595
01:18:40.546	0.039337	0.491898148148595
01:18:40.546	0.038971	0.491898148148595
01:18:40.547	0.038635	0.493055555555316
01:18:40.547	0.038605	0.493055555555316
01:18:40.547	0.038666	0.493055555555316
01:18:40.547	0.038666	0.493055555555316
01:18:40.547	0.038971	0.493055555555316
01:18:40.548	0.039337	0.494212962962731
01:18:40.548	0.039581	0.494212962962731
01:18:40.548	0.039917	0.494212962962731
01:18:40.548	0.040161	0.494212962962731
01:18:40.548	0.040009	0.494212962962731
01:18:40.549	0.039734	0.49537037037084
01:18:40.549	0.039459	0.49537037037084
01:18:40.549	0.039124	0.49537037037084
01:18:40.549	0.039062	0.49537037037084
01:18:40.549	0.039032	0.49537037037084
01:18:40.550	0.038849	0.496527777778255
01:18:40.550	0.038452	0.496527777778255
01:18:40.550	0.037964	0.496527777778255
01:18:40.550	0.037384	0.496527777778255
01:18:40.550	0.037079	0.496527777778255
01:18:40.551	0.036896	0.49768518518567
01:18:40.551	0.036865	0.49768518518567
01:18:40.551	0.03714	0.49768518518567
01:18:40.551	0.037506	0.49768518518567
01:18:40.551	0.037689	0.49768518518567
01:18:40.552	0.038116	0.498842592592391
01:18:40.552	0.038361	0.498842592592391
01:18:40.552	0.03833	0.498842592592391
01:18:40.552	0.038055	0.498842592592391
01:18:40.552	0.037598	0.498842592592391
01:18:40.553	0.036743	0.499999999999806
01:18:40.553	0.035889	0.499999999999806
01:18:40.553	0.035065	0.499999999999806
01:18:40.553	0.034485	0.499999999999806
01:18:40.553	0.034088	0.499999999999806
01:18:40.554	0.033844	0.501157407407915
01:18:40.554	0.033905	0.501157407407915
01:18:40.554	0.034454	0.501157407407915
01:18:40.554	0.034882	0.501157407407915
01:18:40.554	0.035278	0.501157407407915
01:18:40.555	0.035492	0.50231481481533
01:18:40.555	0.035431	0.50231481481533
01:18:40.555	0.034821	0.50231481481533
01:18:40.555	0.034241	0.50231481481533
01:18:40.555	0.0336	0.50231481481533
01:18:40.556	0.033508	0.503472222222051
01:18:40.556	0.033478	0.503472222222051
01:18:40.556	0.033356	0.503472222222051
01:18:40.556	0.03302	0.503472222222051
01:18:40.556	0.032806	0.503472222222051
01:18:40.557	0.032227	0.504629629629466
01:18:40.557	0.031616	0.504629629629466
01:18:40.557	0.031158	0.504629629629466
01:18:40.557	0.030945	0.504629629629466
01:18:40.557	0.030914	0.504629629629466
01:18:40.558	0.031067	0.505787037037575
01:18:40.558	0.03125	0.505787037037575
01:18:40.558	0.031433	0.505787037037575
01:18:40.558	0.031647	0.505787037037575
01:18:40.558	0.031677	0.505787037037575
01:18:40.559	0.031433	0.50694444444499
01:18:40.559	0.031097	0.50694444444499
01:18:40.559	0.030396	0.50694444444499
01:18:40.559	0.029572	0.50694444444499
01:18:40.559	0.028778	0.50694444444499
01:18:40.560	0.027802	0.508101851852405
01:18:40.560	0.027435	0.508101851852405
01:18:40.560	0.027527	0.508101851852405
01:18:40.560	0.027344	0.508101851852405
01:18:40.560	0.02713	0.508101851852405
01:18:40.561	0.027191	0.509259259259126
01:18:40.561	0.027039	0.509259259259126
01:18:40.561	0.026306	0.509259259259126
01:18:40.561	0.025421	0.509259259259126
01:18:40.561	0.024658	0.509259259259126
01:18:40.562	0.024353	0.510416666666541
01:18:40.562	0.023926	0.510416666666541
01:18:40.562	0.023987	0.510416666666541
01:18:40.562	0.024475	0.510416666666541
01:18:40.562	0.024872	0.510416666666541
01:18:40.563	0.024872	0.51157407407465
01:18:40.563	0.024811	0.51157407407465
01:18:40.563	0.02475	0.51157407407465
01:18:40.563	0.024689	0.51157407407465
01:18:40.563	0.025055	0.51157407407465
01:18:40.564	0.025269	0.512731481482065
01:18:40.564	0.025482	0.512731481482065
01:18:40.564	0.025909	0.512731481482065
01:18:40.564	0.026367	0.512731481482065
01:18:40.564	0.02655	0.512731481482065
01:18:40.565	0.026855	0.513888888888786
01:18:40.565	0.026978	0.513888888888786
01:18:40.565	0.026794	0.513888888888786
01:18:40.565	0.026733	0.513888888888786
01:18:40.565	0.02655	0.513888888888786
01:18:40.566	0.026489	0.515046296296201
01:18:40.566	0.026611	0.515046296296201
01:18:40.566	0.026764	0.515046296296201
01:18:40.566	0.026611	0.515046296296201
01:18:40.566	0.026459	0.515046296296201
01:18:40.567	0.026245	0.516203703703616
01:18:40.567	0.026123	0.516203703703616
01:18:40.567	0.026154	0.516203703703616
01:18:40.567	0.026215	0.516203703703616
01:18:40.567	0.026459	0.516203703703616
01:18:40.568	0.026581	0.517361111111725
01:18:40.568	0.026428	0.517361111111725
01:18:40.568	0.026459	0.517361111111725
01:18:40.568	0.026764	0.517361111111725
01:18:40.568	0.026855	0.517361111111725
01:18:40.569	0.026794	0.51851851851914
01:18:40.569	0.026764	0.51851851851914
01:18:40.569	0.026428	0.51851851851914
01:18:40.569	0.026123	0.51851851851914
01:18:40.569	0.025848	0.51851851851914
01:18:40.570	0.025909	0.519675925925861
01:18:40.570	0.026184	0.519675925925861
01:18:40.570	0.026489	0.519675925925861
01:18:40.570	0.026886	0.519675925925861
01:18:40.570	0.027557	0.519675925925861
01:18:40.571	0.02832	0.520833333333276
01:18:40.571	0.02887	0.520833333333276
01:18:40.571	0.029358	0.520833333333276
01:18:40.571	0.029694	0.520833333333276
01:18:40.571	0.029694	0.520833333333276
01:18:40.572	0.029358	0.521990740741385
01:18:40.572	0.028839	0.521990740741385
01:18:40.572	0.028229	0.521990740741385
01:18:40.572	0.027588	0.521990740741385
01:18:40.572	0.027069	0.521990740741385
01:18:40.573	0.026886	0.5231481481488
01:18:40.573	0.026855	0.5231481481488
01:18:40.573	0.02713	0.5231481481488
01:18:40.573	0.027679	0.5231481481488
01:18:40.573	0.028137	0.5231481481488
01:18:40.574	0.028442	0.524305555555521
01:18:40.574	0.028503	0.524305555555521
01:18:40.574	0.028717	0.524305555555521
01:18:40.574	0.0289	0.524305555555521
01:18:40.574	0.029114	0.524305555555521
01:18:40.575	0.029236	0.525462962962936
01:18:40.575	0.029724	0.525462962962936
01:18:40.575	0.029724	0.525462962962936
01:18:40.575	0.02948	0.525462962962936
01:18:40.575	0.029236	0.525462962962936
01:18:40.576	0.028931	0.526620370370351
01:18:40.576	0.028503	0.526620370370351
01:18:40.576	0.028351	0.526620370370351
01:18:40.576	0.02832	0.526620370370351
01:18:40.576	0.028442	0.526620370370351
01:18:40.577	0.028809	0.52777777777846
01:18:40.577	0.029083	0.52777777777846
01:18:40.577	0.029175	0.52777777777846
01:18:40.577	0.029236	0.52777777777846
01:18:40.577	0.029205	0.52777777777846
01:18:40.578	0.029114	0.528935185185875
01:18:40.578	0.02887	0.528935185185875
01:18:40.578	0.028503	0.528935185185875
01:18:40.578	0.028076	0.528935185185875
01:18:40.578	0.027557	0.528935185185875
01:18:40.579	0.027344	0.530092592592596
01:18:40.579	0.027283	0.530092592592596
01:18:40.579	0.027252	0.530092592592596
01:18:40.579	0.0271	0.530092592592596
01:18:40.579	0.026917	0.530092592592596
01:18:40.580	0.026276	0.531250000000011
01:18:40.580	0.026123	0.531250000000011
01:18:40.580	0.026367	0.531250000000011
01:18:40.580	0.02655	0.531250000000011
01:18:40.580	0.026215	0.531250000000011
01:18:40.581	0.025879	0.53240740740812
01:18:40.581	0.025299	0.53240740740812
01:18:40.581	0.025024	0.53240740740812
01:18:40.581	0.025024	0.53240740740812
01:18:40.581	0.025726	0.53240740740812
01:18:40.582	0.026367	0.533564814815535
01:18:40.582	0.026917	0.533564814815535
01:18:40.582	0.027374	0.533564814815535
01:18:40.582	0.027985	0.533564814815535
01:18:40.582	0.028687	0.533564814815535
01:18:40.583	0.029358	0.534722222222256
01:18:40.583	0.029877	0.534722222222256
01:18:40.583	0.03006	0.534722222222256
01:18:40.583	0.029938	0.534722222222256
01:18:40.583	0.029877	0.534722222222256
01:18:40.584	0.029724	0.535879629629671
01:18:40.584	0.02951	0.535879629629671
01:18:40.584	0.029419	0.535879629629671
01:18:40.584	0.029358	0.535879629629671
01:18:40.584	0.028748	0.535879629629671
01:18:40.585	0.028442	0.537037037037086
01:18:40.585	0.02829	0.537037037037086
01:18:40.585	0.027985	0.537037037037086
01:18:40.585	0.027618	0.537037037037086
01:18:40.585	0.027557	0.537037037037086
01:18:40.586	0.027496	0.538194444445195
01:18:40.586	0.027557	0.538194444445195
01:18:40.586	0.027557	0.538194444445195
01:18:40.586	0.02774	0.538194444445195
01:18:40.586	0.028198	0.538194444445195
01:18:40.587	0.028687	0.53935185185261
01:18:40.587	0.028778	0.53935185185261
01:18:40.587	0.029266	0.53935185185261
01:18:40.587	0.029602	0.53935185185261
01:18:40.587	0.029449	0.53935185185261
01:18:40.588	0.028931	0.540509259259331
01:18:40.588	0.028564	0.540509259259331
01:18:40.588	0.027863	0.540509259259331
01:18:40.588	0.027405	0.540509259259331
01:18:40.588	0.026978	0.540509259259331
01:18:40.589	0.026886	0.541666666666746
01:18:40.589	0.026947	0.541666666666746
01:18:40.589	0.026947	0.541666666666746
01:18:40.589	0.026825	0.541666666666746
01:18:40.589	0.0271	0.541666666666746
01:18:40.590	0.027466	0.542824074074161
01:18:40.590	0.027985	0.542824074074161
01:18:40.590	0.028534	0.542824074074161
01:18:40.590	0.0289	0.542824074074161
01:18:40.590	0.029022	0.542824074074161
01:18:40.591	0.028748	0.54398148148227
01:18:40.591	0.028259	0.54398148148227
01:18:40.591	0.02771	0.54398148148227
01:18:40.591	0.02713	0.54398148148227
01:18:40.591	0.026733	0.54398148148227
01:18:40.592	0.026581	0.545138888888991
01:18:40.592	0.026398	0.545138888888991
01:18:40.592	0.026215	0.545138888888991
01:18:40.592	0.026215	0.545138888888991
01:18:40.592	0.026001	0.545138888888991
01:18:40.593	0.026154	0.546296296296406
01:18:40.593	0.026398	0.546296296296406
01:18:40.593	0.026642	0.546296296296406
01:18:40.593	0.026459	0.546296296296406
01:18:40.593	0.026215	0.546296296296406
01:18:40.594	0.025391	0.547453703703821
01:18:40.594	0.024872	0.547453703703821
01:18:40.594	0.024323	0.547453703703821
01:18:40.594	0.023987	0.547453703703821
01:18:40.594	0.023315	0.547453703703821
01:18:40.595	0.022766	0.54861111111193
01:18:40.595	0.022247	0.54861111111193
01:18:40.595	0.021881	0.54861111111193
01:18:40.595	0.021484	0.54861111111193
01:18:40.595	0.021484	0.54861111111193
01:18:40.596	0.02182	0.549768518517957
01:18:40.596	0.022095	0.549768518517957
01:18:40.596	0.022339	0.549768518517957
01:18:40.596	0.022827	0.549768518517957
01:18:40.596	0.023193	0.549768518517957
01:18:40.597	0.023346	0.550925925926066
01:18:40.597	0.023193	0.550925925926066
01:18:40.597	0.022827	0.550925925926066
01:18:40.597	0.022339	0.550925925926066
01:18:40.597	0.022095	0.550925925926066
01:18:40.598	0.02179	0.552083333333481
01:18:40.598	0.021515	0.552083333333481
01:18:40.598	0.021515	0.552083333333481
01:18:40.598	0.021423	0.552083333333481
01:18:40.598	0.02121	0.552083333333481
01:18:40.599	0.021271	0.553240740740896
01:18:40.599	0.021759	0.553240740740896
01:18:40.599	0.022156	0.553240740740896
01:18:40.599	0.022614	0.553240740740896
01:18:40.599	0.023041	0.553240740740896
01:18:40.600	0.022858	0.554398148149005
01:18:40.600	0.02243	0.554398148149005
01:18:40.600	0.022034	0.554398148149005
01:18:40.600	0.021576	0.554398148149005
01:18:40.600	0.020966	0.554398148149005
01:18:40.601	0.020691	0.555555555555032
01:18:40.601	0.020203	0.555555555555032
01:18:40.601	0.019836	0.555555555555032
01:18:40.601	0.019684	0.555555555555032
01:18:40.601	0.019928	0.555555555555032
01:18:40.602	0.020264	0.556712962963141
01:18:40.602	0.02066	0.556712962963141
01:18:40.602	0.020721	0.556712962963141
01:18:40.602	0.020935	0.556712962963141
01:18:40.602	0.020966	0.556712962963141
01:18:40.603	0.006653	0.557870370370556
01:18:40.603	-0.14563	0.557870370370556
01:18:40.603	-0.454559	0.557870370370556
01:18:40.603	-0.872955	0.557870370370556
01:18:40.603	-1.35083	0.557870370370556
01:18:40.604	-1.839813	0.559027777777971
01:18:40.604	-2.101532	0.559027777777971
01:18:40.604	-2.045532	0.559027777777971
01:18:40.604	-1.749207	0.559027777777971
01:18:40.604	-1.310974	0.559027777777971
01:18:40.605	-0.802979	0.560185185184692
01:18:40.605	-0.363495	0.560185185184692
01:18:40.605	-0.076691	0.560185185184692
01:18:40.605	0.081635	0.560185185184692
01:18:40.605	0.15802	0.560185185184692
01:18:40.606	0.190033	0.561342592592801
01:18:40.606	0.200867	0.561342592592801
01:18:40.606	0.202942	0.561342592592801
01:18:40.606	0.201904	0.561342592592801
01:18:40.606	0.200012	0.561342592592801
01:18:40.607	0.197968	0.562500000000216
01:18:40.607	0.196045	0.562500000000216
01:18:40.607	0.194336	0.562500000000216
01:18:40.607	0.192902	0.562500000000216
01:18:40.607	0.191528	0.562500000000216
01:18:40.608	0.190155	0.563657407407631
01:18:40.608	0.188965	0.563657407407631
01:18:40.608	0.188171	0.563657407407631
01:18:40.608	0.187866	0.563657407407631
01:18:40.608	0.187805	0.563657407407631
01:18:40.609	0.187866	0.56481481481574
01:18:40.609	0.188171	0.56481481481574
01:18:40.609	0.188232	0.56481481481574
01:18:40.609	0.18808	0.56481481481574
01:18:40.609	0.187988	0.56481481481574
01:18:40.610	0.187927	0.565972222221767
01:18:40.610	0.187561	0.565972222221767
01:18:40.610	0.187347	0.565972222221767
01:18:40.610	0.186523	0.565972222221767
01:18:40.610	0.185547	0.565972222221767
01:18:40.611	0.184326	0.567129629629876
01:18:40.611	0.183167	0.567129629629876
01:18:40.611	0.181763	0.567129629629876
01:18:40.611	0.181	0.567129629629876
01:18:40.611	0.180786	0.567129629629876
01:18:40.612	0.181183	0.568287037037291
01:18:40.612	0.181396	0.568287037037291
01:18:40.612	0.180939	0.568287037037291
01:18:40.612	0.17923	0.568287037037291
01:18:40.612	0.175903	0.568287037037291
01:18:40.613	0.171051	0.569444444444706
01:18:40.613	0.165466	0.569444444444706
01:18:40.613	0.159576	0.569444444444706
01:18:40.613	0.153412	0.569444444444706
01:18:40.613	0.147156	0.569444444444706
01:18:40.614	0.140625	0.570601851851427
01:18:40.614	0.134216	0.570601851851427
01:18:40.614	0.128296	0.570601851851427
01:18:40.614	0.123047	0.570601851851427
01:18:40.614	0.118225	0.570601851851427
01:18:40.615	0.113983	0.571759259259536
01:18:40.615	0.10965	0.571759259259536
01:18:40.615	0.105225	0.571759259259536
01:18:40.615	0.100952	0.571759259259536
01:18:40.615	0.096863	0.571759259259536
01:18:40.616	0.092834	0.572916666666951
01:18:40.616	0.089203	0.572916666666951
01:18:40.616	0.085938	0.572916666666951
01:18:40.616	0.083344	0.572916666666951
01:18:40.616	0.08194	0.572916666666951
01:18:40.617	0.082062	0.574074074074365
01:18:40.617	0.083374	0.574074074074365
01:18:40.617	0.085449	0.574074074074365
01:18:40.617	0.087524	0.574074074074365
01:18:40.617	0.089417	0.574074074074365
01:18:40.618	0.091003	0.575231481482474
01:18:40.618	0.09256	0.575231481482474
01:18:40.618	0.094666	0.575231481482474
01:18:40.618	0.096893	0.575231481482474
01:18:40.618	0.098785	0.575231481482474
01:18:40.619	0.099854	0.576388888888502
01:18:40.619	0.100098	0.576388888888502
01:18:40.619	0.099243	0.576388888888502
01:18:40.619	0.09787	0.576388888888502
01:18:40.619	0.096252	0.576388888888502
01:18:40.620	0.094757	0.57754629629661
01:18:40.620	0.093353	0.57754629629661
01:18:40.620	0.091858	0.57754629629661
01:18:40.620	0.09082	0.57754629629661
01:18:40.620	0.090363	0.57754629629661
01:18:40.621	0.090454	0.578703703704025
01:18:40.621	0.091064	0.578703703704025
01:18:40.621	0.092499	0.578703703704025
01:18:40.621	0.093781	0.578703703704025
01:18:40.621	0.094452	0.578703703704025
01:18:40.622	0.094055	0.57986111111144
01:18:40.622	0.092133	0.57986111111144
01:18:40.622	0.088135	0.57986111111144
01:18:40.622	0.083527	0.57986111111144
01:18:40.622	0.078491	0.57986111111144
01:18:40.623	0.073822	0.581018518518162
01:18:40.623	0.069855	0.581018518518162
01:18:40.623	0.067078	0.581018518518162
01:18:40.623	0.064331	0.581018518518162
01:18:40.623	0.062317	0.581018518518162
01:18:40.624	0.060516	0.582175925925577
01:18:40.624	0.05896	0.582175925925577
01:18:40.624	0.057434	0.582175925925577
01:18:40.624	0.056458	0.582175925925577
01:18:40.624	0.055328	0.582175925925577
01:18:40.625	0.054596	0.583333333333685
01:18:40.625	0.054169	0.583333333333685
01:18:40.625	0.053772	0.583333333333685
01:18:40.625	0.053314	0.583333333333685
01:18:40.625	0.052826	0.583333333333685
01:18:40.626	0.05188	0.5844907407411
01:18:40.626	0.051086	0.5844907407411
01:18:40.626	0.050446	0.5844907407411
01:18:40.626	0.049744	0.5844907407411
01:18:40.626	0.049011	0.5844907407411
01:18:40.627	0.048309	0.585648148148515
01:18:40.627	0.047058	0.585648148148515
01:18:40.627	0.04599	0.585648148148515
01:18:40.627	0.045227	0.585648148148515
01:18:40.627	0.044495	0.585648148148515
01:18:40.628	0.043701	0.586805555555237
01:18:40.628	0.042786	0.586805555555237
01:18:40.628	0.042114	0.586805555555237
01:18:40.628	0.041412	0.586805555555237
01:18:40.628	0.041138	0.586805555555237
01:18:40.629	0.041138	0.587962962963345
01:18:40.629	0.041534	0.587962962963345
01:18:40.629	0.041718	0.587962962963345
01:18:40.629	0.041443	0.587962962963345
01:18:40.629	0.040619	0.587962962963345
01:18:40.630	0.039429	0.58912037037076
01:18:40.630	0.037872	0.58912037037076
01:18:40.630	0.036255	0.58912037037076
01:18:40.630	0.034882	0.58912037037076
01:18:40.630	0.033936	0.58912037037076
01:18:40.631	0.033478	0.590277777778175
01:18:40.631	0.033417	0.590277777778175
01:18:40.631	0.033417	0.590277777778175
01:18:40.631	0.033447	0.590277777778175
01:18:40.631	0.033264	0.590277777778175
01:18:40.632	0.033081	0.591435185184896
01:18:40.632	0.032776	0.591435185184896
01:18:40.632	0.032471	0.591435185184896
01:18:40.632	0.032288	0.591435185184896
01:18:40.632	0.032043	0.591435185184896
01:18:40.633	0.031525	0.592592592592311
01:18:40.633	0.030914	0.592592592592311
01:18:40.633	0.030334	0.592592592592311
01:18:40.633	0.029663	0.592592592592311
01:18:40.633	0.029022	0.592592592592311
01:18:40.634	0.028381	0.59375000000042
01:18:40.634	0.028137	0.59375000000042
01:18:40.634	0.027649	0.59375000000042
01:18:40.634	0.027313	0.59375000000042
01:18:40.634	0.027008	0.59375000000042
01:18:40.635	0.027008	0.594907407407835
01:18:40.635	0.026672	0.594907407407835
01:18:40.635	0.026428	0.594907407407835
01:18:40.635	0.026306	0.594907407407835
01:18:40.635	0.026154	0.594907407407835
01:18:40.636	0.025726	0.59606481481525
01:18:40.636	0.025146	0.59606481481525
01:18:40.636	0.024506	0.59606481481525
01:18:40.636	0.023773	0.59606481481525
01:18:40.636	0.023499	0.59606481481525
01:18:40.637	0.023254	0.597222222221971
01:18:40.637	0.023285	0.597222222221971
01:18:40.637	0.023529	0.597222222221971
01:18:40.637	0.02359	0.597222222221971
01:18:40.637	0.023407	0.597222222221971
01:18:40.638	0.023071	0.59837962963008
01:18:40.638	0.022644	0.59837962963008
01:18:40.638	0.022186	0.59837962963008
01:18:40.638	0.021729	0.59837962963008
01:18:40.638	0.021088	0.59837962963008
01:18:40.639	0.020721	0.599537037037495
01:18:40.639	0.021606	0.599537037037495
01:18:40.639	0.022308	0.599537037037495
01:18:40.639	0.0224	0.599537037037495
01:18:40.639	0.021973	0.599537037037495
01:18:40.640	0.021179	0.60069444444491
01:18:40.640	0.019226	0.60069444444491
01:18:40.640	0.017212	0.60069444444491
01:18:40.640	0.015808	0.60069444444491
01:18:40.640	0.014862	0.60069444444491
01:18:40.641	0.014374	0.601851851851631
01:18:40.641	0.014221	0.601851851851631
01:18:40.641	0.014496	0.601851851851631
01:18:40.641	0.014862	0.601851851851631
01:18:40.641	0.015411	0.601851851851631
01:18:40.642	0.0159	0.603009259259046
01:18:40.642	0.01593	0.603009259259046
01:18:40.642	0.015686	0.603009259259046
01:18:40.642	0.01535	0.603009259259046
01:18:40.642	0.01474	0.603009259259046
01:18:40.643	0.014069	0.604166666667155
01:18:40.643	0.013519	0.604166666667155
01:18:40.643	0.013	0.604166666667155
01:18:40.643	0.012482	0.604166666667155
01:18:40.643	0.012115	0.604166666667155
01:18:40.644	0.01181	0.60532407407457
01:18:40.644	0.011475	0.60532407407457
01:18:40.644	0.011108	0.60532407407457
01:18:40.644	0.010651	0.60532407407457
01:18:40.644	0.010315	0.60532407407457
01:18:40.645	0.009857	0.606481481481985
01:18:40.645	0.009766	0.606481481481985
01:18:40.645	0.010132	0.606481481481985
01:18:40.645	0.01062	0.606481481481985
01:18:40.645	0.010864	0.606481481481985
01:18:40.646	0.011078	0.607638888888706
01:18:40.646	0.010895	0.607638888888706
01:18:40.646	0.010193	0.607638888888706
01:18:40.646	0.009552	0.607638888888706
01:18:40.646	0.008881	0.607638888888706
01:18:40.647	0.008514	0.608796296296121
01:18:40.647	0.008423	0.608796296296121
01:18:40.647	0.008636	0.608796296296121
01:18:40.647	0.008789	0.608796296296121
01:18:40.647	0.009277	0.608796296296121
01:18:40.648	0.00946	0.60995370370423
01:18:40.648	0.00943	0.60995370370423
01:18:40.648	0.009399	0.60995370370423
01:18:40.648	0.009308	0.60995370370423
01:18:40.648	0.009003	0.60995370370423
01:18:40.649	0.008636	0.611111111111645
01:18:40.649	0.008087	0.611111111111645
01:18:40.649	0.007202	0.611111111111645
01:18:40.649	0.006683	0.611111111111645
01:18:40.649	0.006226	0.611111111111645
01:18:40.650	0.006104	0.612268518518366
01:18:40.650	0.006378	0.612268518518366
01:18:40.650	0.006714	0.612268518518366
01:18:40.650	0.006836	0.612268518518366
01:18:40.650	0.007202	0.612268518518366
01:18:40.651	0.007446	0.613425925925781
01:18:40.651	0.007538	0.613425925925781
01:18:40.651	0.00769	0.613425925925781
01:18:40.651	0.007935	0.613425925925781
01:18:40.651	0.007874	0.613425925925781
01:18:40.652	0.007965	0.61458333333389
01:18:40.652	0.008026	0.61458333333389
01:18:40.652	0.007904	0.61458333333389
01:18:40.652	0.007629	0.61458333333389
01:18:40.652	0.007568	0.61458333333389
01:18:40.653	0.007172	0.615740740741305
01:18:40.653	0.006866	0.615740740741305
01:18:40.653	0.006805	0.615740740741305
01:18:40.653	0.006714	0.615740740741305
01:18:40.653	0.006531	0.615740740741305
01:18:40.654	0.006592	0.61689814814872
01:18:40.654	0.006714	0.61689814814872
01:18:40.654	0.006775	0.61689814814872
01:18:40.654	0.006866	0.61689814814872
01:18:40.654	0.006989	0.61689814814872
01:18:40.655	0.007019	0.618055555555441
01:18:40.655	0.006958	0.618055555555441
01:18:40.655	0.00647	0.618055555555441
01:18:40.655	0.006165	0.618055555555441
01:18:40.655	0.005707	0.618055555555441
01:18:40.656	0.005432	0.619212962962856
01:18:40.656	0.004913	0.619212962962856
01:18:40.656	0.004883	0.619212962962856
01:18:40.656	0.004791	0.619212962962856
01:18:40.656	0.005035	0.619212962962856
01:18:40.657	0.005157	0.620370370370965
01:18:40.657	0.00531	0.620370370370965
01:18:40.657	0.00531	0.620370370370965
01:18:40.657	0.005188	0.620370370370965
01:18:40.657	0.004761	0.620370370370965
01:18:40.658	0.004517	0.62152777777838
01:18:40.658	0.004395	0.62152777777838
01:18:40.658	0.004364	0.62152777777838
01:18:40.658	0.004364	0.62152777777838
01:18:40.658	0.004333	0.62152777777838
01:18:40.659	0.004028	0.622685185185101
01:18:40.659	0.003784	0.622685185185101
01:18:40.659	0.003571	0.622685185185101
01:18:40.659	0.003296	0.622685185185101
01:18:40.659	0.003113	0.622685185185101
01:18:40.660	0.002869	0.623842592592516
01:18:40.660	0.00296	0.623842592592516
01:18:40.660	0.003357	0.623842592592516
01:18:40.660	0.003448	0.623842592592516
01:18:40.660	0.003326	0.623842592592516
01:18:40.661	0.003265	0.625000000000625
01:18:40.661	0.002808	0.625000000000625
01:18:40.661	0.00177	0.625000000000625
01:18:40.661	0.001068	0.625000000000625
01:18:40.661	0.000671	0.625000000000625
01:18:40.662	0.000397	0.62615740740804
01:18:40.662	0.000153	0.62615740740804
01:18:40.662	-9.2E-05	0.62615740740804
01:18:40.662	-0.000488	0.62615740740804
01:18:40.662	-0.00119	0.62615740740804
01:18:40.663	-0.001801	0.627314814814761
01:18:40.663	-0.002258	0.627314814814761
01:18:40.663	-0.002441	0.627314814814761
01:18:40.663	-0.002106	0.627314814814761
01:18:40.663	-0.00119	0.627314814814761
01:18:40.664	-0.00061	0.628472222222176
01:18:40.664	-0.000275	0.628472222222176
01:18:40.664	0.000153	0.628472222222176
01:18:40.664	0.000275	0.628472222222176
01:18:40.664	3.1E-05	0.628472222222176
01:18:40.665	0.000244	0.629629629629591
01:18:40.665	0.000305	0.629629629629591
01:18:40.665	0.000275	0.629629629629591
01:18:40.665	0.000244	0.629629629629591
01:18:40.665	0.000458	0.629629629629591
01:18:40.666	0.000427	0.6307870370377
01:18:40.666	0.000702	0.6307870370377
01:18:40.666	0.000824	0.6307870370377
01:18:40.666	0.000824	0.6307870370377
01:18:40.666	0.000732	0.6307870370377
01:18:40.667	0.000549	0.631944444445115
01:18:40.667	0.000336	0.631944444445115
01:18:40.667	0.000366	0.631944444445115
01:18:40.667	0.000305	0.631944444445115
01:18:40.667	0.000183	0.631944444445115
01:18:40.668	6.1E-05	0.633101851851836
01:18:40.668	-0.000153	0.633101851851836
01:18:40.668	-0.000397	0.633101851851836
01:18:40.668	-0.000458	0.633101851851836
01:18:40.668	-0.000641	0.633101851851836
01:18:40.669	-0.000977	0.634259259259251
01:18:40.669	-0.00119	0.634259259259251
01:18:40.669	-0.001404	0.634259259259251
01:18:40.669	-0.001465	0.634259259259251
01:18:40.669	-0.001434	0.634259259259251
01:18:40.670	-0.001068	0.635416666666666
01:18:40.670	-0.00061	0.635416666666666
01:18:40.670	-0.000336	0.635416666666666
01:18:40.670	-0.000244	0.635416666666666
01:18:40.670	-0.000183	0.635416666666666
01:18:40.671	-0.000122	0.636574074074775
01:18:40.671	-0.000214	0.636574074074775
01:18:40.671	-0.000275	0.636574074074775
01:18:40.671	-0.000366	0.636574074074775
01:18:40.671	-0.000458	0.636574074074775
01:18:40.672	-0.00061	0.637731481481496
01:18:40.672	-0.000732	0.637731481481496
01:18:40.672	-0.000763	0.637731481481496
01:18:40.672	-0.000702	0.637731481481496
01:18:40.672	-0.000793	0.637731481481496
01:18:40.673	-0.000977	0.638888888888911
01:18:40.673	-0.000977	0.638888888888911
01:18:40.673	-0.000824	0.638888888888911
01:18:40.673	-0.000702	0.638888888888911
01:18:40.673	-0.000671	0.638888888888911
01:18:40.674	-0.000641	0.640046296296326
01:18:40.674	-0.000824	0.640046296296326
01:18:40.674	-0.001251	0.640046296296326
01:18:40.674	-0.001434	0.640046296296326
01:18:40.674	-0.001434	0.640046296296326
01:18:40.675	-0.001495	0.641203703704435
01:18:40.675	-0.001434	0.641203703704435
01:18:40.675	-0.001495	0.641203703704435
01:18:40.675	-0.00174	0.641203703704435
01:18:40.675	-0.001923	0.641203703704435
01:18:40.676	-0.002075	0.64236111111185
01:18:40.676	-0.002319	0.64236111111185
01:18:40.676	-0.002319	0.64236111111185
01:18:40.676	-0.00238	0.64236111111185
01:18:40.676	-0.00238	0.64236111111185
01:18:40.677	-0.002289	0.643518518518571
01:18:40.677	-0.002563	0.643518518518571
01:18:40.677	-0.002808	0.643518518518571
01:18:40.677	-0.003082	0.643518518518571
01:18:40.677	-0.003448	0.643518518518571
01:18:40.678	-0.004028	0.644675925925986
01:18:40.678	-0.004456	0.644675925925986
01:18:40.678	-0.004669	0.644675925925986
01:18:40.678	-0.004608	0.644675925925986
01:18:40.678	-0.004395	0.644675925925986
01:18:40.679	-0.003967	0.645833333333401
01:18:40.679	-0.003326	0.645833333333401
01:18:40.679	-0.003052	0.645833333333401
01:18:40.679	-0.003235	0.645833333333401
01:18:40.679	-0.003601	0.645833333333401
01:18:40.680	-0.00415	0.64699074074151
01:18:40.680	-0.004547	0.64699074074151
01:18:40.680	-0.004822	0.64699074074151
01:18:40.680	-0.005981	0.64699074074151
01:18:40.680	-0.007172	0.64699074074151
01:18:40.681	-0.007812	0.648148148148231
01:18:40.681	-0.008301	0.648148148148231
01:18:40.681	-0.008484	0.648148148148231
01:18:40.681	-0.007294	0.648148148148231
01:18:40.681	-0.006104	0.648148148148231
01:18:40.682	-0.005463	0.649305555555646
01:18:40.682	-0.005005	0.649305555555646
01:18:40.682	-0.004608	0.649305555555646
01:18:40.682	-0.004333	0.649305555555646
01:18:40.682	-0.003784	0.649305555555646
01:18:40.683	-0.003204	0.650462962963061
01:18:40.683	-0.002838	0.650462962963061
01:18:40.683	-0.002808	0.650462962963061
01:18:40.683	-0.002747	0.650462962963061
01:18:40.683	-0.002899	0.650462962963061
01:18:40.684	-0.00296	0.651620370370476
01:18:40.684	-0.003265	0.651620370370476
01:18:40.684	-0.00351	0.651620370370476
01:18:40.684	-0.003967	0.651620370370476
01:18:40.684	-0.004395	0.651620370370476
01:18:40.685	-0.004547	0.652777777778585
01:18:40.685	-0.004425	0.652777777778585
01:18:40.685	-0.004364	0.652777777778585
01:18:40.685	-0.004364	0.652777777778585
01:18:40.685	-0.004211	0.652777777778585
01:18:40.686	-0.004517	0.653935185185306
01:18:40.686	-0.004608	0.653935185185306
01:18:40.686	-0.004639	0.653935185185306
01:18:40.686	-0.004517	0.653935185185306
01:18:40.686	-0.004547	0.653935185185306
01:18:40.687	-0.004211	0.655092592592721
01:18:40.687	-0.003571	0.655092592592721
01:18:40.687	-0.002899	0.655092592592721
01:18:40.687	-0.002441	0.655092592592721
01:18:40.687	-0.002258	0.655092592592721
01:18:40.688	-0.002411	0.656250000000136
01:18:40.688	-0.003143	0.656250000000136
01:18:40.688	-0.003723	0.656250000000136
01:18:40.688	-0.004272	0.656250000000136
01:18:40.688	-0.004456	0.656250000000136
01:18:40.689	-0.004486	0.657407407408245
01:18:40.689	-0.004303	0.657407407408245
01:18:40.689	-0.004181	0.657407407408245
01:18:40.689	-0.003906	0.657407407408245
01:18:40.689	-0.003754	0.657407407408245
01:18:40.690	-0.003448	0.658564814814272
01:18:40.690	-0.003113	0.658564814814272
01:18:40.690	-0.002838	0.658564814814272
01:18:40.690	-0.002502	0.658564814814272
01:18:40.690	-0.001984	0.658564814814272
01:18:40.691	-0.001678	0.659722222222381
01:18:40.691	-0.001465	0.659722222222381
01:18:40.691	-0.001282	0.659722222222381
01:18:40.691	-0.001312	0.659722222222381
01:18:40.691	-0.001465	0.659722222222381
01:18:40.692	-0.001373	0.660879629629796
01:18:40.692	-0.001373	0.660879629629796
01:18:40.692	-0.001221	0.660879629629796
01:18:40.692	-0.000824	0.660879629629796
01:18:40.692	-0.000671	0.660879629629796
01:18:40.693	-0.001495	0.662037037037211
01:18:40.693	-0.001343	0.662037037037211
01:18:40.693	-0.001312	0.662037037037211
01:18:40.693	-0.001587	0.662037037037211
01:18:40.693	-0.001831	0.662037037037211
01:18:40.694	-0.001617	0.66319444444532
01:18:40.694	-0.002441	0.66319444444532
01:18:40.694	-0.003387	0.66319444444532
01:18:40.694	-0.004181	0.66319444444532
01:18:40.694	-0.005096	0.66319444444532
01:18:40.695	-0.005585	0.664351851852041
01:18:40.695	-0.005707	0.664351851852041
01:18:40.695	-0.005371	0.664351851852041
01:18:40.695	-0.004761	0.664351851852041
01:18:40.695	-0.00412	0.664351851852041
01:18:40.696	-0.003632	0.665509259259456
01:18:40.696	-0.003571	0.665509259259456
01:18:40.696	-0.003876	0.665509259259456
01:18:40.696	-0.004242	0.665509259259456
01:18:40.696	-0.004547	0.665509259259456
01:18:40.697	-0.004669	0.666666666666871
01:18:40.697	-0.004669	0.666666666666871
01:18:40.697	-0.004822	0.666666666666871
01:18:40.697	-0.005127	0.666666666666871
01:18:40.697	-0.004913	0.666666666666871
01:18:40.698	-0.004852	0.66782407407498
01:18:40.698	-0.0047	0.66782407407498
01:18:40.698	-0.004364	0.66782407407498
01:18:40.698	-0.004089	0.66782407407498
01:18:40.698	-0.003998	0.66782407407498
01:18:40.699	-0.00351	0.668981481481007
01:18:40.699	-0.00293	0.668981481481007
01:18:40.699	-0.002289	0.668981481481007
01:18:40.699	-0.001862	0.668981481481007
01:18:40.699	-0.001709	0.668981481481007
01:18:40.700	-0.001953	0.670138888889116
01:18:40.700	-0.00238	0.670138888889116
01:18:40.700	-0.003174	0.670138888889116
01:18:40.700	-0.003906	0.670138888889116
01:18:40.700	-0.004608	0.670138888889116
01:18:40.701	-0.00528	0.671296296296531
01:18:40.701	-0.005829	0.671296296296531
01:18:40.701	-0.005798	0.671296296296531
01:18:40.701	-0.005493	0.671296296296531
01:18:40.701	-0.005035	0.671296296296531
01:18:40.702	-0.004517	0.672453703703946
01:18:40.702	-0.003876	0.672453703703946
01:18:40.702	-0.003632	0.672453703703946
01:18:40.702	-0.003387	0.672453703703946
01:18:40.702	-0.003143	0.672453703703946
01:18:40.703	-0.003143	0.673611111112055
01:18:40.703	-0.003357	0.673611111112055
01:18:40.703	-0.003235	0.673611111112055
01:18:40.703	-0.003235	0.673611111112055
01:18:40.703	-0.003174	0.673611111112055
01:18:40.704	-0.002838	0.674768518518082
01:18:40.704	-0.002472	0.674768518518082
01:18:40.704	-0.002411	0.674768518518082
01:18:40.704	-0.002258	0.674768518518082
01:18:40.704	-0.002258	0.674768518518082
01:18:40.705	-0.002197	0.675925925926191
01:18:40.705	-0.002106	0.675925925926191
01:18:40.705	-0.002167	0.675925925926191
01:18:40.705	-0.002625	0.675925925926191
01:18:40.705	-0.003265	0.675925925926191
01:18:40.706	-0.003906	0.677083333333606
01:18:40.706	-0.004578	0.677083333333606
01:18:40.706	-0.005188	0.677083333333606
01:18:40.706	-0.005554	0.677083333333606
01:18:40.706	-0.005676	0.677083333333606
01:18:40.707	-0.006012	0.678240740741021
01:18:40.707	-0.006531	0.678240740741021
01:18:40.707	-0.007019	0.678240740741021
01:18:40.707	-0.007904	0.678240740741021
01:18:40.707	-0.008728	0.678240740741021
01:18:40.708	-0.009155	0.679398148147742
01:18:40.708	-0.009277	0.679398148147742
01:18:40.708	-0.00882	0.679398148147742
01:18:40.708	-0.007843	0.679398148147742
01:18:40.708	-0.007324	0.679398148147742
01:18:40.709	-0.007629	0.680555555555851
01:18:40.709	-0.008209	0.680555555555851
01:18:40.709	-0.009766	0.680555555555851
01:18:40.709	-0.011658	0.680555555555851
01:18:40.709	-0.013733	0.680555555555851
01:18:40.710	-0.015869	0.681712962963266
01:18:40.710	-0.018646	0.681712962963266
01:18:40.710	-0.021698	0.681712962963266
01:18:40.710	-0.025604	0.681712962963266
01:18:40.710	-0.029724	0.681712962963266
01:18:40.711	-0.034332	0.682870370370681
01:18:40.711	-0.039093	0.682870370370681
01:18:40.711	-0.044159	0.682870370370681
01:18:40.711	-0.048737	0.682870370370681
01:18:40.711	-0.052795	0.682870370370681
01:18:40.712	-0.055786	0.68402777777879
01:18:40.712	-0.057648	0.68402777777879
01:18:40.712	-0.058289	0.68402777777879
01:18:40.712	-0.057648	0.68402777777879
01:18:40.712	-0.056213	0.68402777777879
01:18:40.713	-0.054138	0.685185185184817
01:18:40.713	-0.051056	0.685185185184817
01:18:40.713	-0.047241	0.685185185184817
01:18:40.713	-0.042694	0.685185185184817
01:18:40.713	-0.03714	0.685185185184817
01:18:40.714	-0.030548	0.686342592592926
01:18:40.714	-0.022919	0.686342592592926
01:18:40.714	-0.013824	0.686342592592926
01:18:40.714	-0.00415	0.686342592592926
01:18:40.714	0.005371	0.686342592592926
01:18:40.715	0.013794	0.687500000000341
01:18:40.715	0.019806	0.687500000000341
01:18:40.715	0.023834	0.687500000000341
01:18:40.715	0.02652	0.687500000000341
01:18:40.715	0.028412	0.687500000000341
01:18:40.716	0.03006	0.688657407407756
01:18:40.716	0.031982	0.688657407407756
01:18:40.716	0.033264	0.688657407407756
01:18:40.716	0.033752	0.688657407407756
01:18:40.716	0.033051	0.688657407407756
01:18:40.717	0.031128	0.689814814814477
01:18:40.717	0.027527	0.689814814814477
01:18:40.717	0.022369	0.689814814814477
01:18:40.717	0.01532	0.689814814814477
01:18:40.717	0.007294	0.689814814814477
01:18:40.718	-0.00058	0.690972222222586
01:18:40.718	-0.006622	0.690972222222586
01:18:40.718	-0.009308	0.690972222222586
01:18:40.718	-0.007141	0.690972222222586
01:18:40.718	0.001007	0.690972222222586
01:18:40.719	0.015442	0.692129629630001
01:18:40.719	0.036133	0.692129629630001
01:18:40.719	0.06131	0.692129629630001
01:18:40.719	0.089417	0.692129629630001
01:18:40.719	0.118713	0.692129629630001
01:18:40.720	0.147797	0.693287037037416
01:18:40.720	0.174713	0.693287037037416
01:18:40.720	0.198883	0.693287037037416
01:18:40.720	0.220337	0.693287037037416
01:18:40.720	0.238831	0.693287037037416
01:18:40.721	0.254028	0.694444444444137
01:18:40.721	0.266357	0.694444444444137
